theta,z_plus,lambda_top,edge_margin
0.0,5.056145568846624,0.1006124080808311,-5.031375344298492
0.02617993877991494,5.080590497164427,0.10292335329421157,-5.053876001327682
0.05235987755982988,5.101554628445044,0.10517056494196236,-5.072907382929756
0.07853981633974483,5.11902359651382,0.10735211344123705,-5.08845683702029
0.10471975511965977,5.132985431668996,0.10946615348422092,-5.10051405965981
0.1308996938995747,5.143430568904969,0.11151092079832825,-5.109071106640215
0.15707963267948966,5.150351854495806,0.11348472947025118,-5.114122402842992
0.18325957145940458,5.153744550934884,0.11538596974177409,-5.1156647494571335
0.20943951023931953,5.153606340227858,0.11721310620062986,-5.1136973291306465
0.23561944901923448,5.1499373255373975,0.1189646763023007,-5.108221709118158
0.2617993877991494,5.142740031179446,0.12063928916906591,-5.099241842478071
0.28797932657906433,5.13201940097208,0.12223562462117832,-5.086764067365483
0.3141592653589793,5.117782794939401,0.12375243240217251,-5.070797104461319
0.34033920413889424,5.100039984374245,0.12518853156621543,-5.051352052573643
0.36651914291880916,5.0788031452649705,0.12654281000033513,-5.02844238244361
0.39269908169872414,5.054086850093011,0.12781422405849097,-5.002083928785916
0.41887902047863906,5.025908058009446,0.12900179828790242,-4.972294880591686
0.445058959258554,4.994286103400452,0.1301046252309747,-4.939095769720485
0.47123889803846897,4.959242682853159,0.1311218652886202,-4.902509457807335
0.4974188368183839,4.920801840535346,0.13205274663287614,-4.8625611215105
0.5235987755982988,4.87898995200429,0.1328965651585034,-4.819278236125851
0.5497787143782138,4.833835706462273,0.1336526844647909,-4.772690557594416
0.5759586531581287,4.78537008747865,0.1343205358601135,-4.722830102930716
0.6021385919380436,4.733626352201035,0.13489961838294762,-4.669731129101103
0.6283185307179586,4.678640009081208,0.13538949883405355,-4.613430110383374
0.6544984694978735,4.620448794144883,0.13578981181543415,-4.553965714241622
0.6806784082777885,4.5590926458386285,0.1361002597724728,-4.491378775753735
0.7068583470577035,4.494613678492166,0.1363206130363769,-4.425712270633172
0.7330382858376183,4.427056154440209,0.13645070986471536,-4.357011286892097
0.7592182246175333,4.356466454855395,0.1364904564784578,-4.285322995199769
0.7853981633974483,4.282893049352923,0.13643982709450492,-4.210696617998712
0.8115781021773631,4.20638646443904,0.13629886395326252,-4.133183397452363
0.8377580409572781,4.126999250890127,0.13606767734137537,-4.052836562312104
0.8639379797371931,4.044785950168143,0.13574644561028532,-3.9697112938103802
0.890117918517108,3.9598030600028604,0.13533541519185846,-3.8838646907110443
0.916297857297023,3.8721089993040922,0.13483490061292047,-3.7953557336807333
0.9424777960769379,3.781764072610853,0.13424528451117562,-3.70424524918884
0.9686577348568528,3.6888304343435276,0.13356701765567547,-3.610595873203005
0.9948376736367678,3.593372053206102,0.13280061897575557,-3.514472015028438
1.0210176124166828,3.4954546771974635,0.13194667560319995,-3.415939821752225
1.0471975511965976,3.3951457998476537,0.13100584293333684,-3.3150671439120316
1.0733774899765125,3.292514628517386,0.1299788447118444,-3.2119235032333022
1.0995574287564276,3.1876320559185336,0.12886647315526742,-3.106580063602044
1.1257373675363425,3.0805706364781305,0.1276695891146704,-2.999109606910632
1.1519173063162573,2.971404569854057,0.12638912229349308,-2.8895865161083747
1.1780972450961724,2.8602096949363363,0.12502607153259818,-2.7780867688277833
1.2042771838760873,2.7470634992239766,0.12358150517775432,-2.6646879465345816
1.2304571226560022,2.6320451508610536,0.12205656154745861,-2.549469266576511
1.2566370614359172,2.5152355643460598,0.12045244952214637,-2.4325116482891045
1.2828170002158321,2.396717516805772,0.11877044927957911,-2.3138978302782798
1.308996938995747,2.276575841047443,0.11701191320565882,-2.193712565457496
1.335176877775662,2.154897736368851,0.1151782670152583,-2.0720429353991254
1.361356816555577,2.0317732610730115,0.11327101112406285,-1.9489788488650437
1.3875367553354918,1.9072961044516341,0.11129172232013834,-1.8246138236982703
1.413716694115407,1.7815647786701723,0.10924205579326648,-1.6990461945569584
1.4398966328953218,1.6546843992173446,0.10712374759137719,-1.5723809176142276
1.4660765716752366,1.5267691415041211,0.10493861758712625,-1.4447320610395566
1.4922565104551517,1.3979449889305036,0.10268857305435983,-1.3162255907101013
1.5184364492350666,1.2683509546141114,0.10037561297457762,-1.1870006059587455
1.5446163880149815,1.1381343544753455,0.09800183321839692,-1.0572045365740788
1.5707963267948966,1.007435057833065,0.09556943277748581,-0.9269771509230751
1.5969762655748114,0.8763626880759535,0.09308072125974176,-0.796427407137351
1.6231562043547263,0.7449853786865342,0.09053812790619584,-0.6656220314606364
1.6493361431346414,0.6133420521360895,0.08794421244403478,-0.534597970474096
1.6755160819145563,0.481464901752829,0.08530167815840065,-0.40338519712072085
1.7016960206944711,0.34939427688174585,0.0826133876485998,-0.2720218033863723
1.7278759594743862,0.21718289759138723,0.0798823818345237,-0.14055825922073434
1.754055898254301,0.0848944643948291,0.07711190289870776,-0.009055978462043784
1.780235837034216,-0.04739914717456877,0.07430542198995194,0.12170456916452072
1.806415775814131,-0.17962040038160443,0.07146667267518902,0.25108707305679345
1.832595714594046,-0.311687957111975,0.06859969130258635,0.38028764841456136
1.8587756533739608,-0.44351796673880167,0.06570886561821482,0.5092268323570165
1.8849555921538759,-0.5750249453280557,0.06279899313471454,0.6378239384627702
1.9111355309337907,-0.7061223805032403,0.05987535083312623,0.7659977313363665
1.9373154697137056,-0.836723156783278,0.05694377769898509,0.8936669344822631
1.9634954084936207,-0.9667398637362733,0.05401077119849275,1.0207506349347661
1.9896753472735356,-1.0960850270628937,0.051083597842025055,1.1471686249049187
2.0158552860534504,-1.2246712883435493,0.048170416076356054,1.2728417044199054
2.0420352248333655,-1.3524115500595528,0.04528040633772874,1.3976919563972816
2.06821516361328,-1.4792190967230474,0.0424238974590425,1.52164299418209
2.0943951023931953,-1.6050076992726114,0.03961246997607908,1.6446201692486906
2.1205750411731104,-1.7296917075248361,0.03685900476027021,1.7665507122851063
2.146754979953025,-1.8531861339305635,0.03417763051446142,1.887363764445025
2.17293491873294,-1.97540673086639,0.031583509294882336,2.0069902401612723
2.199114857512855,-2.096270063010738,0.029092393011575235,2.125362456022313
2.22529479629277,-2.215693575891649,0.026719898461919626,2.2424134743535684
2.251474735072685,-2.3335956613758038,0.024480498046727618,2.3580761594225312
2.2776546738526,-2.4498957206472207,0.02238631287194072,2.4722820335191615
2.3038346126325147,-2.5645142250685535,0.02044590444653386,2.5849601295150872
2.3300145514124297,-2.6773727752070293,0.018663338844996366,2.6960361140520255
2.356194490192345,-2.788394158227382,0.01703778125601615,2.805431939483398
2.3823744289722595,-2.8975024037962887,0.015563746825132509,2.9130661506214213
2.4085543677521746,-3.0046228386003317,0.014231937183647743,3.0188547757839794
2.4347343065320897,-3.1096821395482164,0.013030430215579588,3.122712569763796
2.4609142453120043,-3.212608385704673,0.011945937431967256,3.22455432313664
2.4870941840919194,-3.3133311089860475,0.010964899284447412,3.324296008270495
2.5132741228718345,-3.4117813436344733,0.010074298111377989,3.4218556417458514
2.539454061651749,-3.50789167447767,0.009262170634063597,3.5171538451117335
2.5656340004316642,-3.601596283973942,0.008517865651842458,3.6101141496257845
2.5918139392115793,-3.6928309980363494,0.007832116588442815,3.7006631146247924
2.617993877991494,-3.7815333306257903,0.007196996244466483,3.788730326870257
2.644173816771409,-3.867642527099599,0.006605806972649943,3.874248334072249
2.670353755551324,-3.9510996062999197,0.006052943180803927,3.957152549480724
2.696533694331239,-4.031847401364485,0.005533749195078191,4.037381150559563
2.722713633111154,-4.1098305992412945,0.005044385385986921,4.114874984627281
2.748893571891069,-4.184995778887826,0.004581708771604392,4.18957748765943
2.7750735106709836,-4.257291448135142,0.004143170240614163,4.261434618375756
2.8012534494508987,-4.326668079196974,0.0037267282476634023,4.3303948074446375
2.827433388230814,-4.3930781428039145,0.003330777661737259,4.396408920465651
2.8536133270107285,-4.456476140943138,0.002954091925239945,4.459430232868378
2.8797932657906435,-4.516818638184313,0.002595776493921856,4.519414414678235
2.9059732045705586,-4.574064291572896,0.002255231471028853,4.576319523043925
2.9321531433504733,-4.628173879072568,0.001932121284192346,4.6301060003567605
2.9583330821303884,-4.679110326539159,0.0016263490732783316,4.680736675612438
2.9845130209103035,-4.726838733209138,0.0013380330588176218,4.728176766267955
3.010692959690218,-4.771326395686531,0.0010674814279794632,4.77239387711451
3.036872898470133,-4.812542830412888,0.0008151610898900291,4.813357991502778
3.0630528372500483,-4.850459794605793,0.0005816539882770917,4.85104144859407
3.089232776029963,-4.885051305652286,0.00036759288255724574,4.8854188985348435
3.115412714809878,-4.916293658944488,0.00017356800965881116,4.916467226954147
3.141592653589793,-4.944165444145577,3.624913739479597e-17,4.944165444145577
3.1677725923697078,-4.968647559875347,5.937720135442611e-18,4.968647559875347
3.193952531149623,-4.98972322680539,6.522657319429258e-18,4.98972322680539
3.220132469929538,-5.0073779991550085,5.699952570737445e-18,5.0073779991550085
3.2463124087094526,-5.021599774579951,6.3893407801926205e-18,5.021599774579951
3.2724923474893677,-5.032378802446982,5.003795004958779e-18,5.032378802446982
3.2986722862692828,-5.039707690488332,6.237117044950812e-18,5.039707690488332
3.3248522250491974,-5.043581409831069,7.82470632710606e-18,5.043581409831069
3.3510321638291125,-5.043997298397351,7.488481481189905e-18,5.043997298397351
3.3772121026090276,-5.040955062672547,6.33137831684166e-18,5.040955062672547
3.4033920413889422,-5.034456777839085,6.9374831590146956e-18,5.034456777839085
3.4295719801688573,-5.024506886274939,6.1887237219517836e-18,5.024506886274939
3.4557519189487724,-5.0111121944163886,7.303188427968456e-18,5.0111121944163886
3.481931857728687,-4.994281867985727,8.290408180221402e-18,4.994281867985727
3.508111796508602,-4.974027425585277,6.880094807226566e-18,4.974027425585277
3.5342917352885173,-4.9503627306599345,6.178248418997327e-18,4.9503627306599345
3.560471674068432,-4.923303981831083,8.947149882428446e-18,4.923303981831083
3.586651612848347,-4.892869701605385,9.474329267662784e-18,4.892869701605385
3.612831551628262,-4.859080723462448,7.808203802997729e-18,4.859080723462448
3.6390114904081767,-4.821960177325764,6.2822105809664845e-18,4.821960177325764
3.665191429188092,-4.781533473421498,8.600135128363632e-18,4.781533473421498
3.691371367968007,-4.737828284529783,1.0520101116188421e-17,4.737828284529783
3.7175513067479216,-4.690874526632951,7.16461894719339e-18,4.690874526632951
3.7437312455278366,-4.640704337964531,1.1908689092192359e-17,4.640704337964531
3.7699111843077517,-4.587352056462066,9.280187412221034e-18,4.587352056462066
3.7960911230876664,-4.530854195625193,9.825655957260701e-18,4.530854195625193
3.8222710618675815,-4.471249418778572,8.652202183492786e-18,4.471249418778572
3.8484510006474966,-4.408578511736226,8.210747538510809e-18,4.408578511736226
3.874630939427411,-4.342884353860014,7.154580475964793e-18,4.342884353860014
3.9008108782073263,-4.27421188749962,1.0059610729261499e-17,4.27421188749962
3.9269908169872414,-4.202608085794331,1.0095395542323344e-17,4.202608085794331
3.953170755767156,-4.128121918807386,7.349280408683465e-18,4.128121918807386
3.979350694547071,-4.050804317950938,1.0590813120621013e-17,4.050804317950938
4.005530633326986,-3.9707081386427667,9.203048992352303e-18,3.9707081386427667
4.031710572106901,-3.887888121112967,9.312743573403502e-18,3.887888121112967
4.057890510886816,-3.802400849248206,7.437712340876196e-18,3.802400849248206
4.084070449666731,-3.7143047073193003,8.449565099250916e-18,3.7143047073193003
4.110250388446646,-3.6236598343808226,9.256551647315009e-18,3.6236598343808226
4.13643032722656,-3.5305280760527795,6.618714477571829e-18,3.5305280760527795
4.162610266006475,-3.4349729332848202,7.93305287265068e-18,3.4349729332848202
4.1887902047863905,-3.337059507549621,8.333800622679559e-18,3.337059507549621
4.214970143566306,-3.236854441693202,6.4748097304583345e-18,3.236854441693202
4.241150082346221,-3.1344258553555884,6.698409783175606e-18,3.1344258553555884
4.267330021126136,-3.029843273417295,7.855836623682122e-18,3.029843273417295
4.29350995990605,-2.923177545252104,8.28674082742295e-18,2.923177545252104
4.319689898685965,-2.8145007515574734,6.4542394503069675e-18,2.8145007515574734
4.34586983746588,-2.703886094005111,9.42077616677807e-18,2.703886094005111
4.372049776245795,-2.591407760605769,1.056640469394832e-17,2.591407760605769
4.39822971502571,-2.4771407560295695,7.19871739341482e-18,2.4771407560295695
4.4244096538056255,-2.3611606803791534,7.312430958098796e-18,2.3611606803791534
4.45058959258554,-2.2435434308200723,9.863348777020834e-18,2.2435434308200723
4.476769531365455,-2.1243647860956987,5.8525147940715414e-18,2.1243647860956987
4.50294947014537,-2.00369981160887,5.507905319875748e-18,2.00369981160887
4.529129408925285,-1.881621989788409,9.202707599597498e-18,1.881621989788409
4.5553093477052,-1.7582019384026357,7.45521045772527e-18,1.7582019384026357
4.581489286485115,-1.633505549315132,6.780965649694233e-18,1.633505549315132
4.607669225265029,-1.5075914488719535,4.393258915874229e-18,1.5075914488719535
4.633849164044944,-1.3805081115037627,6.66098046222057e-18,1.3805081115037627
4.6600291028248595,-1.2522923055849096,5.651478808226174e-18,1.2522923055849096
4.686209041604775,-1.1229731436329917,5.223296047199063e-18,1.1229731436329917
4.71238898038469,-0.9925871448004912,9.477932620485729e-18,0.9925871448004912
4.738568919164605,-0.8612014613065406,7.92200662197446e-05,0.8612806813727604
4.764748857944519,-0.7289266855162205,0.0001975448271267789,0.7291242303433473
4.790928796724434,-0.5959051001986607,0.0003461303720004572,0.5962512305706612
4.817108735504349,-0.46228711516019627,0.0005191356277375862,0.46280625078793386
4.843288674284264,-0.32821532670045134,0.0007128364408091471,0.3289281631412605
4.869468613064179,-0.19381995984120207,0.0009247512878170442,0.19474471112901912
4.895648551844094,-0.05922025972960057,0.0011532158604315621,0.06037347559003214
4.921828490624009,0.07547267744430543,0.0013971957523889846,-0.07520757185358103
4.948008429403924,0.21015342215615632,0.0016562278126519506,-0.2116494956758467
4.974188368183839,0.3447204301733866,0.0019304397022044699,-0.34796079692378296
5.000368306963754,0.47907485824437507,0.0022206218265468946,-0.48404035929149375
5.026548245743669,0.613119801924724,0.0025283304733526787,-0.6197882684802423
5.052728184523584,0.7467598131370075,0.002855991535894422,-0.7551052187981682
5.078908123303498,0.879900599278242,0.0032069606475482668,-0.8898921476198675
5.105088062083413,1.0124488399827651,0.003585502605948704,-1.0240500699765578
5.1312680008633285,1.1443120807185134,0.003996709852190431,-1.1574800520771007
5.1574479396432436,1.2753986771503272,0.004446469414844738,-1.2900831878927375
5.183627878423159,1.4056177734909643,0.004941617023017503,-1.4217604230703114
5.209807817203074,1.5348793039040796,0.00549031497293777,-1.552412178489703
5.235987755982988,1.6630940097276248,0.006102525424783258,-1.681937894448756
5.262167694762903,1.7901734676610495,0.006790352798823453,-1.8102357168771417
5.288347633542818,1.9160301256025973,0.007568044482535541,-1.937202533004101
5.314527572322733,2.0405773438397397,0.008451538109402155,-2.0627344658879334
5.340707511102648,2.163729439975008,0.009457575567805954,-2.186727806006827
5.366887449882563,2.2854017364300088,0.01060250650328877,-2.3090802559731705
5.393067388662478,2.405510609686624,0.011900937684787147,-2.429692331147136
5.419247327442393,2.523973540644583,0.01336437877862726,-2.548468764975625
5.445427266222308,2.6407091656296746,0.015000049885857883,-2.6653197532282618
5.471607205002223,2.7556373276977184,0.016810053324915194,-2.7801618342882692
5.497787143782138,2.868679127959193,0.01879110466171817,-2.892918210216863
5.523967082562053,2.979756976707863,0.020934912419973285,-3.0035184189385076
5.550147021341967,3.088794644179775,0.02322912180086495,-3.1118974420416063
5.576326960121882,3.1957173108011916,0.02565858831203334,-3.2179944821511763
5.602506898901797,3.30045161680818,0.028206698809816362,-3.3217516922504866
5.6286868376817125,3.4029257111392286,0.030856514317699,-3.423113082488618
5.654866776461628,3.5030692995163744,0.03359161784019864,-3.5220237211689214
5.681046715241543,3.600813691641536,0.036396651861428056,-3.618429245154731
5.707226654021457,3.6960918474434963,0.039257593317440484,-3.712275631837708
5.733406592801372,3.7888384223180114,0.042161837371905445,-3.8035091612808762
5.759586531581287,3.8789898113091605,0.045098158685898046,-3.8920764997929
5.785766470361202,3.9664841921847827,0.0480566044672827,-3.9779248506002713
5.811946409141117,4.051261567362658,0.05102835705167415,-4.061002133821424
5.838126347921032,4.133263804647413,0.05400558970569069,-4.141257172011434
5.864306286700947,4.212434676740926,0.05698132905302741,-4.218639867839014
5.890486225480862,4.288719899491505,0.05994933070499758,-4.29310136727888
5.916666164260777,4.362067168849178,0.06290397050509097,-4.364594205876824
5.942846103040692,4.432426196496575,0.06584015143919844,-4.4330724380048245
5.969026041820607,4.499748744126459,0.06875322506011963,-4.498491750228236
5.995205980600522,4.563988656338774,0.0716389257634672,-4.560809560420388
6.021385919380436,4.625101892131518,0.07449331612981688,-4.619985104383674
6.047565858160351,4.683046554961289,0.07731274162824645,-4.675979511657462
6.073745796940266,4.737782921350667,0.08009379314923021,-4.728755872021696
6.0999257357201815,4.789273468021034,0.08283327603852958,-4.77827929400282
6.126105674500097,4.8374828975306645,0.085528184505688,-4.824516956487936
6.152285613280012,4.882378162399231,0.08817568046553059,-4.8674381543696885
6.178465552059926,4.9239284877011515,0.09077307603266574,-4.907014338984003
6.204645490839841,4.962105392111378,0.09331781902649194,-4.943219153966557
6.230825429619756,4.996882707388537,0.0958074809591847,-4.97602846704018
6.257005368399671,5.02823659628149,0.09823974707419689,-5.005420398151515
