theta,z_plus,lambda_top,edge_margin
0.0,5.057308894510745,0.06765746090643138,-5.0655110670219745
0.02617993877991494,5.081753451103636,0.0699386397096387,-5.088041113160552
0.05235987755982988,5.102716467015252,0.0721843627212867,-5.107072851299194
0.07853981633974483,5.120183576905116,0.07439202376092802,-5.122594306797764
0.10471975511965977,5.134142812460576,0.07655917259058065,-5.134595782056904
0.1308996938995747,5.14458461061999,0.07868349823690893,-5.143069881542381
0.15707963267948966,5.151501820156087,0.0807628151265522,-5.148011532331876
0.18325957145940458,5.154889706615492,0.08279505155202549,-5.149418000662699
0.20943951023931953,5.154745955611573,0.08477824006930207,-5.1472889048764445
0.23561944901923448,5.151070674469101,0.0867105094980217,-5.141626225088116
0.2617993877991494,5.143866392220521,0.08859007825305179,-5.132434309850777
0.28797932657906433,5.133138057954953,0.0904152487837086,-5.119719880040568
0.3141592653589793,5.118893037522396,0.0921844029360043,-5.103492030149227
0.34033920413889424,5.101141108597014,0.09389599808529012,-5.08376222714068
0.36651914291880916,5.0798944541048074,0.09554856391289326,-5.060544307003486
0.39269908169872414,5.055167654022479,0.09714069972183725,-5.033854469110978
0.41887902047863906,5.026977675555831,0.09867107220436808,-5.003711268484801
0.445058959258554,4.995343861707698,0.10013841358850215,-4.970135606044812
0.47123889803846897,4.960287918247104,0.10154152010273876,-4.933150716918072
0.4974188368183839,4.92183389909323,0.10287925070792668,-4.892782156871702
0.5235987755982988,4.88000819012975,0.10415052605341141,-4.849057786928285
0.5497787143782138,4.834839491467298,0.10535432762135011,-4.802007756217957
0.5759586531581287,4.786358798174275,0.10648969702868535,-4.751664483118204
0.6021385919380436,4.734599379498926,0.10755573546096397,-4.698062634730446
0.6283185307179586,4.679596756608771,0.10855160321609711,-4.641239104741806
0.6544984694978735,4.621388678877066,0.10947651933945479,-4.5812329897207675
0.6806784082777885,4.560015098750273,0.11032976133445577,-4.5180855638970705
0.7068583470577035,4.4955181452356,0.11111066493515867,-4.451840252478975
0.7330382858376183,4.427942096053815,0.11181862392935304,-4.38254260356527
0.7592182246175333,4.357333348510147,0.11245309002234291,-4.310240258715456
0.7853981633974483,4.283740389145496,0.11301357273307447,-4.234982922249604
0.8115781021773631,4.207213762242107,0.11349963931551035,-4.156822329360228
0.8377580409572781,4.127806037272964,0.11391091469924525,-4.075812213132814
0.8639379797371931,4.045571775403895,0.11424708144430398,-3.992008270590649
0.890117918517108,3.96056749518292,0.11450787970590595,-3.905468127904758
0.916297857297023,3.872851637585364,0.11469310720572057,-3.8162513049434237
0.9424777960769379,3.7824845306284938,0.1148026192068142,-3.724419179381107
0.9686577348568528,3.6895283538307933,0.1148363284900974,-3.6300349506481577
0.9948376736367678,3.5940471028747094,0.11479420533065002,-3.53316360408718
1.0210176124166828,3.4961065549476222,0.11467627747283221,-3.4338718757990043
1.0471975511965976,3.395774235397934,0.11448263010360227,-3.3322282188253003
1.0733774899765125,3.293119386573,0.11421340582395559,-3.2283027715476393
1.0995574287564276,3.1882129400352723,0.11386880461890364,-3.122167329516898
1.1257373675363425,3.0811274938322306,0.11344908382690216,-3.013895322412812
1.1519173063162573,2.9719372972016447,0.11295455811017671,-2.903561798549493
1.1780972450961724,2.860718246148069,0.11238559942792928,-2.7912434204123606
1.2042771838760873,2.7475478949229832,0.11174263701501078,-2.677018476331817
1.2304571226560022,2.6325054908912424,0.11102615736928778,-2.560966915885323
1.2566370614359172,2.515672044073968,0.11023670425164153,-2.443170420483436
1.2828170002158321,2.397130448635088,0.10937487870333865,-2.3237125266612755
1.308996938995747,2.276965683014912,0.10844133908641465,-2.202678829173721
1.335176877775662,2.155265130264519,0.10743680115373755,-2.0801573060647494
1.361356816555577,2.032119083019885,0.10636203815660597,-1.9562388311085772
1.3875367553354918,1.9076215307439055,0.10521788099909937,-1.8310179727059648
1.413716694115407,1.7818713674191444,0.104005218449997,-1.7045942194804344
1.4398966328953218,1.654974180491659,0.1027249974249416,-1.5770737957740921
1.4660765716752366,1.5270446886429125,0.1013782233537196,-1.4485721356188366
1.4922565104551517,1.3982094059114965,0.09996596065011451,-1.3192165863500545
1.5184364492350666,1.2686076797186479,0.0984893333048602,-1.1891474616095674
1.5446163880149815,1.1383867528063871,0.09694952562586673,-1.058513028472616
1.5707963267948966,1.0076860715058418,0.09534778315424858,-0.9274535794241807
1.5969762655748114,0.8766149884325856,0.09368541378990033,-0.796078799469174
1.6231562043547263,0.7452418729217837,0.0919637891666272,-0.6644567118489833
1.6493361431346414,0.6136060415770356,0.0901843463243856,-0.5326257858763055
1.6755160819145563,0.48173975458875584,0.08834858973530099,-0.40061726117228613
1.7016960206944711,0.34968304162333064,0.08645809375116809,-0.2684701934965125
1.7278759594743862,0.21748811279090272,0.08451450555353465,-0.13623592892923161
1.754055898254301,0.08521814239757226,0.08251954870375958,-0.0039768658297762716
1.780235837034216,-0.04705545467246592,0.08047502741028845,0.12753048208275436
1.806415775814131,-0.17925551683260355,0.07838283165460416,0.2576383484872077
1.832595714594046,-0.31130100250101245,0.07624494334686752,0.38754594584787994
1.8587756533739608,-0.4431082935380051,0.07406344371836124,0.5171717372563663
1.8849555921538759,-0.5745920889186955,0.07184052220185551,0.6464326111205511
1.9111355309337907,-0.7056660215896631,0.06957848710458357,0.7752445086942467
1.9373154697137056,-0.8362430930662572,0.06727977844341666,0.9035228715096739
1.9634954084936207,-0.9662359885215929,0.06494698338996949,1.0311829719115624
1.9896753472735356,-1.0955573130039777,0.06258285486646711,1.1581401678704448
2.0158552860534504,-1.2241197749768162,0.060190333942391414,1.2843101089192077
2.0420352248333655,-1.3518363341501909,0.05777257680687234,1.4096089109570633
2.06821516361328,-1.478620324705547,0.05533298722921806,1.533953311934765
2.0943951023931953,-1.6043855612640412,0.05287525556108927,1.6572608168251304
2.1205750411731104,-1.729046432528362,0.050403405460013984,1.779449837988376
2.146754979953025,-1.8525179859470744,0.04792184958975969,1.9004398355368342
2.17293491873294,-1.9747160057045496,0.04543545551526178,2.0201514612198115
2.199114857512855,-2.095557085638347,0.042949622750510674,2.138506708388858
2.22529479629277,-2.2149586982096467,0.040470371260975746,2.2554290694706225
2.251474735072685,-2.3328392603245005,0.038004440393287556,2.370843700717788
2.2776546738526,-2.4491181965753626,0.03555939480041513,2.4846775913757777
2.3038346126325147,-2.5637160003115214,0.033143729906218264,2.5968597302177394
2.3300145514124297,-2.6765542928323187,0.03076696317848368,2.707321256010802
2.356194490192345,-2.7875558809145193,0.02843968844963806,2.815995569364157
2.3823744289722595,-2.896644812825219,0.026173558875667066,2.922818371700886
2.4085543677521746,-3.003746432927661,0.023981151602175586,3.0277275845298366
2.4347343065320897,-3.1087874349547873,0.02187565854288062,3.130663093497668
2.4609142453120043,-3.2116959140012273,0.019870351680183036,3.2315662656814106
2.4870941840919194,-3.312401417266243,0.017977799802777257,3.3303792170690203
2.5132741228718345,-3.4108349935665636,0.016208875494358704,3.427043869060922
2.539454061651749,-3.5069292416277635,0.014571680739617858,3.521500922367381
2.5656340004316642,-3.6006183571550334,0.013070605410157955,3.6136889625651913
2.5918139392115793,-3.691838178678373,0.011705763270036725,3.7035439419484097
2.617993877991494,-3.7805262321627877,0.010472983909577379,3.790999216072365
2.644173816771409,-3.8666217743707687,0.009364386212744125,3.875986160583513
2.670353755551324,-3.950065834961896,0.008369388355271328,3.958435223317167
2.696533694331239,-4.030801257312661,0.007475904114467103,4.0382771614271284
2.722713633111154,-4.108772738038344,0.006671474439104051,4.115444212477448
2.748893571891069,-4.183926865197964,0.005944163354175777,4.18987102855214
2.7750735106709836,-4.256212155162866,0.005283152859458574,4.261495308022325
2.8012534494508987,-4.325579088129296,0.004679056074916607,4.330258144204213
2.827433388230814,-4.391980142255232,0.004124013047820941,4.396104155303052
2.8536133270107285,-4.455369826402101,0.003611643932752915,4.458981470334853
2.8797932657906435,-4.515704711462125,0.0031369235911236394,4.518841635053249
2.9059732045705586,-4.57294346025263,0.0026960229610440006,4.575639483213674
2.9321531433504733,-4.627046855959154,0.002286143827167884,4.629332999786322
2.9583330821303884,-4.677977829109786,0.0019053582901183371,4.679883187399905
2.9845130209103035,-4.725701483063882,0.0015524530266423212,4.727253936090524
3.010692959690218,-4.770185117999054,0.001226771282808376,4.771411889281862
3.036872898470133,-4.8113982533811335,0.0009280429008716539,4.812326296282005
3.0630528372500483,-4.849312648902609,0.000656195893688425,4.849968844796297
3.089232776029963,-4.883902323875964,0.00041115336728947134,4.8843134772432535
3.115412714809878,-4.915143575069194,0.0001926353963590038,4.9153362104655525
3.141592653589793,-4.943014992971726,1.5802643131927327e-17,4.943014992971726
3.1677725923697078,-4.96749747647991,5.5269740729307934e-18,4.96749747647991
3.193952531149623,-4.988574245992206,5.04508872568623e-18,4.988574245992206
3.220132469929538,-5.006230854905126,5.212803148756585e-18,5.006230854905126
3.2463124087094526,-5.020455199502033,4.7709810064534156e-18,5.020455199502033
3.2724923474893677,-5.031237527227807,4.898040736386268e-18,5.031237527227807
3.2986722862692828,-5.038570443343425,5.211020149785757e-18,5.038570443343425
3.3248522250491974,-5.042448915955446,5.274735692908365e-18,5.042448915955446
3.3510321638291125,-5.0428702794163485,4.359986979366929e-18,5.0428702794163485
3.3772121026090276,-5.039834236092695,4.6987708684866915e-18,5.039834236092695
3.4033920413889422,-5.033342856498945,5.963059408326312e-18,5.033342856498945
3.4295719801688573,-5.023400577795737,5.859389658325619e-18,5.023400577795737
3.4557519189487724,-5.010014200652282,7.627243409232544e-18,5.010014200652282
3.481931857728687,-4.993192884473449,5.59520501337067e-18,4.993192884473449
3.508111796508602,-4.9729481409928,5.901949747965506e-18,4.9729481409928
3.5342917352885173,-4.949293826233764,6.547627309430056e-18,4.949293826233764
3.560471674068432,-4.922246130841624,4.708948482645306e-18,4.922246130841624
3.586651612848347,-4.891823568789727,6.3012309324859044e-18,4.891823568789727
3.612831551628262,-4.858046964463764,5.570955340090548e-18,4.858046964463764
3.6390114904081767,-4.820939438128303,6.469997009592142e-18,4.820939438128303
3.665191429188092,-4.780526389779972,6.502066066080749e-18,4.780526389779972
3.691371367968007,-4.736835481391669,5.960555084855573e-18,4.736835481391669
3.7175513067479216,-4.6898966175519075,7.530610439179679e-18,4.6898966175519075
3.7437312455278366,-4.639741924502783,6.849142362156167e-18,4.639741924502783
3.7699111843077517,-4.586405727579085,6.820150750616589e-18,4.586405727579085
3.7960911230876664,-4.529924527049559,6.2538184974433735e-18,4.529924527049559
3.8222710618675815,-4.470336972359086,5.869825218314482e-18,4.470336972359086
3.8484510006474966,-4.407683834767616,5.812098136837706e-18,4.407683834767616
3.874630939427411,-4.3420079783775165,5.627047589512147e-18,4.3420079783775165
3.9008108782073263,-4.2733543295354,6.436748192476356e-18,4.2733543295354
3.9269908169872414,-4.2017698445872105,5.229953291390136e-18,4.2017698445872105
3.953170755767156,-4.127303475955253,6.113684191384372e-18,4.127303475955253
3.979350694547071,-4.050006136492799,5.89855183084081e-18,4.050006136492799
4.005530633326986,-3.969930662054124,5.675068552741076e-18,3.969930662054124
4.031710572106901,-3.887131772194216,5.245198638503897e-18,3.887131772194216
4.057890510886816,-3.8016660288804434,5.8526186328530005e-18,3.8016660288804434
4.084070449666731,-3.713591793055191,6.741457393664167e-18,3.713591793055191
4.110250388446646,-3.6229691788293,7.726748605682157e-18,3.6229691788293
4.13643032722656,-3.529860005004698,7.224856134003687e-18,3.529860005004698
4.162610266006475,-3.434327743511245,7.99211772057752e-18,3.434327743511245
4.1887902047863905,-3.3364374641838133,6.36827665635041e-18,3.3364374641838133
4.214970143566306,-3.236255775079531,7.723531384478056e-18,3.236255775079531
4.241150082346221,-3.133850757210886,6.3195549377055936e-18,3.133850757210886
4.267330021126136,-3.0292918920984913,8.747292320750533e-18,3.0292918920984913
4.29350995990605,-2.922649979852805,5.635639265348311e-18,2.922649979852805
4.319689898685965,-2.8139970444575138,8.204966035884315e-18,2.8139970444575138
4.34586983746588,-2.7034062213599035,7.264856887638657e-18,2.7034062213599035
4.372049776245795,-2.5909516200716203,6.264463992979786e-18,2.5909516200716203
4.39822971502571,-2.4767081507580553,5.4501984964370285e-18,2.4767081507580553
4.4244096538056255,-2.3607512979580134,5.3314053334974094e-18,2.3607512979580134
4.45058959258554,-2.243156815379212,8.609089591300927e-18,2.243156815379212
4.476769531365455,-2.1240003012660322,6.319458175095127e-18,2.1240003012660322
4.50294947014537,-2.0033565915808103,6.873511901314395e-18,2.0033565915808103
4.529129408925285,-1.881298875879915,5.454834449048307e-18,1.881298875879915
4.5553093477052,-1.757897400685794,5.521124366424359e-18,1.757897400685794
4.581489286485115,-1.6332176001453953,5.8701782265934916e-18,1.6332176001453953
4.607669225265029,-1.5073175734894555,5.91551593001533e-18,1.5073175734894555
4.633849164044944,-1.3802452753583396,7.001525156077547e-18,1.3802452753583396
4.6600291028248595,-1.2520371305490807,6.557303034568504e-18,1.2520371305490807
4.686209041604775,-1.1227222830238448,6.880414848248411e-18,1.1227222830238448
4.71238898038469,-0.9923376146793335,8.9844866451472e-18,0.9923376146793335
4.738568919164605,-0.8609505014949375,8.07992267558793e-05,0.8610313007216933
4.764748857944519,-0.7286712763747345,0.00019556533715087187,0.7288668417118854
4.790928796724434,-0.5956418307907917,0.0003348745053125543,0.5959767052961042
4.817108735504349,-0.46201253771835976,0.0004951691882653375,0.4625077069066251
4.843288674284264,-0.3279263521567856,0.0006742184060761155,0.32860057056286174
4.869468613064179,-0.19351403951612986,0.0008701452276323163,0.19438418474376218
4.895648551844094,-0.05889538882224924,0.0010812988056431677,0.059976687627892405
4.921828490624009,0.0758180349833673,0.00130625485843914,-0.07564905064967865
4.948008429403924,0.21052042464389153,0.0015438132202903795,-0.21213441779325953
4.974188368183839,0.34510993951872915,0.001792982698576561,-0.3484936059129335
5.000368306963754,0.4794875051215398,0.002052961890425174,-0.48462685580793774
5.026548245743669,0.6135560356864824,0.0023231231404192312,-0.6204362530813604
5.052728184523584,0.7472199393740782,0.0026030040074875357,-0.7558252344572017
5.078908123303498,0.8803848079746489,0.0028923096933407113,-0.8906982704009279
5.105088062083413,1.012957226694545,0.003190931293804839,-1.0249606538011584
5.1312680008633285,1.1448446626226343,0.003498989185951872,-1.158518343376022
5.1574479396432436,1.2759554053229865,0.0038169202537580212,-1.2912778161490732
5.183627878423159,1.4061985424024344,0.004145644426026686,-1.4231458761124443
5.209807817203074,1.5354839588450189,0.004486863865272908,-1.5540293543624213
5.235987755982988,1.6637223526859393,0.0048435027360695755,-1.6838346852401587
5.262167694762903,1.790825262028335,0.005219949042186633,-1.8124676919165732
5.288347633542818,1.9167050999889612,0.005621064504436447,-1.939834611984359
5.314527572322733,2.041275195203756,0.00604985881181773,-2.0658444643199947
5.340707511102648,2.164449836223436,0.006506813657151317,-2.1904097701096363
5.366887449882563,2.2861443186039176,0.006991794825464271,-2.313444688557512
5.393067388662478,2.406274993822673,0.007505721950157069,-2.4348633967798556
5.419247327442393,2.5247593193795095,0.008051076619333696,-2.5545796325508685
5.445427266222308,2.6415159096006087,0.00863195963471997,-2.672506688609898
5.471607205002223,2.7564645867793085,0.009254109358695124,-2.7885574462223026
5.497787143782138,2.869526432369678,0.009924934240084676,-2.9026443946151383
5.523967082562053,2.9806238380094863,0.010653505856641519,-3.0146796897229873
5.550147021341967,3.0896805561937084,0.011450441386028253,-3.124575323150586
5.576326960121882,3.1966217504530867,0.012327606282099248,-3.232243470427784
5.602506898901797,3.3013740449173126,0.01329757925718494,-3.3375970763338874
5.6286868376817125,3.403865573161695,0.014372851057662728,-3.4405507057014577
5.654866776461628,3.5040260262508323,0.015564787161119045,-3.5410216294834758
5.681046715241543,3.6017866999044013,0.016882471508829947,-3.638931028894137
5.707226654021457,3.6970805407192495,0.018331636588126046,-3.734205112241912
5.733406592801372,3.789842191389257,0.01991392382394072,-3.826775900436155
5.759586531581287,3.8800080348702286,0.021626663987153086,-3.916581491406129
5.785766470361202,3.9675162374420316,0.023463226077558234,-4.003565754926104
5.811946409141117,4.052306790624052,0.02541381941711749,-4.087677573066295
5.838126347921032,4.13432155190351,0.02746652775512206,-4.168869847426941
5.864306286700947,4.213504284239044,0.029608344564592076,-4.247098503938037
5.890486225480862,4.2898006943045,0.03182604462293481,-4.322321660096133
5.916666164260777,4.3631584694400525,0.03410681788082329,-4.39449902860083
5.942846103040692,4.4335273132798605,0.03643866597231618,-4.463591557006742
5.969026041820607,4.500858980027196,0.03881060348103556,-4.5295612612465685
5.995205980600522,4.565107307349721,0.0412127191251946,-4.592371197834772
6.021385919380436,4.626228247869102,0.0436361476979724,-4.6519855238891665
6.047565858160351,4.684179899220723,0.04607299217285166,-4.708369605536182
6.073745796940266,4.738922532660536,0.048516223198359174,-4.7614901474520845
6.0999257357201815,4.790418620197602,0.05095957309946181,-4.811315326401104
6.126105674500097,4.83863286023207,0.053397434164574986,-4.857814918970976
6.152285613280012,4.883532201679724,0.0558247661274244,-4.900960418577496
6.178465552059926,4.925085866565401,0.058237014748867694,-4.940725139815014
6.204645490839841,4.96326537106895,0.06063004168012197,-4.977084309954861
6.230825429619756,4.998044545008518,0.0630000648865637,-5.010015148297082
6.257005368399671,5.029399549747256,0.06534360850718648,-5.039496934486279
