theta,z_plus,lambda_top,edge_margin
0.0,0.0020822420428763325,0.004553253610523731,0.0024293667267898714
0.04363323129985824,0.002100044388280502,0.005629595057913193,0.0034875497818670806
0.08726646259971647,0.002116082949702074,0.0067459047422562726,0.004587500133560157
0.1308996938995747,0.00213032658178885,0.007881363187459436,0.005708430074034809
0.17453292519943295,0.002142746889367478,0.009022857348916868,0.00683725552176204
0.2181661564992912,0.002153318265608219,0.010161609195078209,0.007965224564157826
0.2617993877991494,0.0021620179168398536,0.011291310161315645,0.009086051886138995
0.30543261909900765,0.0021688258733223147,0.012407111172002404,0.010194908781213643
0.3490658503988659,0.0021737249850551977,0.013505065734257842,0.011287866249501542
0.39269908169872414,0.002176700901426469,0.014581813351946065,0.012361578432491067
0.4363323129985824,0.0021777420331700954,0.0156343936704766,0.013413096796643103
0.4799655442984406,0.0021768394946810638,0.01666013408082536,0.014439757796250676
0.5235987755982988,0.002173987024200739,0.01765657999760866,0.015439113232923907
0.5672320068981571,0.002169180878692881,0.018621450722569537,0.016408886226302797
0.6108652381980153,0.002162419699322592,0.01955261109687216,0.017346943003563115
0.6544984694978736,0.0021537043422449878,0.0204480531505547,0.018251274721464813
0.6981317007977318,0.0021430376677896365,0.021305884225436014,0.019119985804290585
0.74176493209759,0.0021304242789196796,0.022124319369929077,0.019951286605431003
0.7853981633974483,0.00211587019679784,0.022901676596193188,0.020743488995459393
0.8290313946973065,0.0020993824570246797,0.023636374076540803,0.02149500397037563
0.8726646259971648,0.002080968604044425,0.024326928661875413,0.0222043406857501
0.916297857297023,0.0020606360524293293,0.024971955301417437,0.02287010652793952
0.9599310885968813,0.0020383912707993323,0.025570167071739446,0.023491007975524128
1.0035643198967394,0.002014238724627176,0.026120375609103977,0.024065852109984257
1.0471975511965976,0.001988179484114369,0.02662149179751034,0.024593548723713683
1.0908307824964558,0.0019602093557594584,0.02707252660521369,0.025073113062339045
1.1344640137963142,0.001930316318738143,0.027472591990808898,0.025503669345695992
1.1780972450961724,0.0018984769166149498,0.027820901820175603,0.025884455365228355
1.2217304763960306,0.0018646510261685766,0.02811677275022066,0.026214828703528713
1.2653637076958888,0.0018287740061458393,0.028359625046138606,0.02649427555986985
1.3089969389957472,0.0017907444199900546,0.028548983306998857,0.026722423998609
1.3526301702956054,0.0017504038650382099,0.028684477080660034,0.02689906513832106
1.3962634015954636,0.0017075017625307514,0.02876584135386135,0.027024189556079985
1.4398966328953218,0.001661629053628367,0.028792916907253496,0.027098055272552563
1.48352986419518,0.0016120807436592625,0.028765650528394096,0.02712132816986165
1.5271630954950384,0.001557535247418698,0.028684095078573925,0.02709540912620685
1.5707963267948966,0.001495236436013675,0.028548409411933817,0.027023268247199868
1.6144295580947547,0.0014201921457463599,0.028358858147835432,0.026910262159174143
1.658062789394613,0.0013366361356352621,0.028115811300003193,0.026752442441655228
1.7016960206944713,0.0012607945250091399,0.02781974376871365,0.026533733353204327
1.7453292519943295,0.0011965416287620062,0.027471234705435513,0.026250762244098266
1.7889624832941877,0.0011417713039766823,0.027070966763036136,0.02590636003297992
1.832595714594046,0.001094051429809442,0.02661972524923186,0.02550379279082623
1.876228945893904,0.0010515097760757414,0.026118397206740834,0.02504585723514358
1.9198621771937625,0.0010127946171016313,0.02556797045110689,0.024534919941663225
1.9634954084936207,0.0009769335643903924,0.024969532607123958,0.023973060371445757
2.007128639793479,0.0009432188218509699,0.024324270198250626,0.023362186999962637
2.050761871093337,0.0009111272692014926,0.023633467861902235,0.022704118047316712
2.0943951023931953,0.0008802664698566021,0.02289850778933692,0.022000635990083187
2.1380283336930535,0.0008503380892785446,0.022120869525495288,0.021253524674431173
2.1816615649929116,0.0008211127617250683,0.021302130316970688,0.02046459530001112
2.2252947962927703,0.0007924125146178061,0.02044396627368074,0.019635705508770578
2.2689280275926285,0.0007640982461054426,0.019548154725197282,0.01876877451416973
2.3125612588924866,0.0007360606343136495,0.018616578327902922,0.017865796480902998
2.356194490192345,0.0007082134139418188,0.01765123175048043,0.016928854068259776
2.399827721492203,0.0006804883093827649,0.01665423219443199,0.01596013411886157
2.443460952792061,0.0006528311401305144,0.015627835700927607,0.014961947937994482
2.4870941840919194,0.0006251987607945513,0.014574462347649288,0.013936759611638845
2.5307274153917776,0.0005975565929276355,0.013496735403125494,0.012887227678339306
2.574360646691636,0.0005698765659866422,0.012397542950923216,0.011816268853616842
2.6179938779914944,0.0005421353194971891,0.011280136727946297,0.010727158702059163
2.6616271092913526,0.0005143125317192088,0.010148294561631677,0.009623695779278085
2.705260340591211,0.00048638923012499664,0.009006595231411004,0.008510478216683508
2.748893571891069,0.0004583458961971888,0.007860899027155435,0.007393386213034303
2.792526803190927,0.00043016007660632595,0.006719216435135157,0.006280453156996705
2.8361600344907854,0.0004018029950759779,0.0055933211822386825,0.005183482127261185
2.8797932657906435,0.00037323417461888946,0.00450175125092429,0.004121052392813023
2.9234264970905017,0.0003443919183242185,0.0034749875894665395,0.0031237078327758364
2.96705972839036,0.0003151743827142489,0.0025617599248427183,0.0022402820544741844
3.0106929596902186,0.00028539617933776414,0.0018258737096118632,0.0015347696066873437
3.0543261909900767,0.00025466621169232314,0.0013047455149954026,0.001044985979069233
3.097959422289935,0.00022189242284275504,0.0009435759249787007,0.0007172456536790906
3.141592653589793,0.0003486263968830633,0.0006629930772657563,0.0003073941524450317
3.1852258848896513,0.00013731522010466257,0.00043605885393616393,0.0002959973294294081
3.2288591161895095,0.00010616310774750136,0.0002595207269186976,0.00015123435701624622
3.2724923474893677,8.246146195462849e-05,0.000128872416997591,4.4761725803869955e-05
3.316125578789226,6.386947829707531e-05,3.5431170412906686e-05,-2.9715697450110133e-05
3.359758810089084,4.8936777914139315e-05,-2.947554955348562e-10,-4.9915808227917636e-05
3.4033920413889427,3.6717132247871916e-05,-8.954883314892885e-10,-3.745237038116085e-05
3.447025272688801,2.6567277301656594e-05,-1.471633919067015e-09,-2.7100094481608794e-05
3.490658503988659,1.8035010593784736e-05,-2.023465183621686e-09,-1.839773427084405e-05
3.5342917352885173,1.0793540987892695e-05,-2.551016870015338e-09,-1.1011962824520563e-05
3.5779249665883754,4.601239145004837e-06,-3.0541307034260203e-09,-4.69631805860836e-06
3.6215581978882336,-7.239658609909407e-07,-3.532488596255167e-09,7.204333723946855e-07
3.665191429188092,-5.51620204858269e-06,-3.985636741566668e-09,5.512216411841123e-06
3.70882466048795,-1.0916410096169322e-05,-4.413002477914402e-09,1.0911997093691409e-05
3.752457891787808,-1.6530982947312902e-05,-4.813905130960485e-09,1.6526169042181942e-05
3.796091123087667,-2.2006034297713052e-05,-5.187561533220172e-09,2.200084673617983e-05
3.839724354387525,-2.7140956755889962e-05,-5.533086507178225e-09,2.7135423669382783e-05
3.883357585687383,-3.180189333133981e-05,-5.849488220128255e-09,3.1796043843119685e-05
3.9269908169872414,-3.588853722417039e-05,-6.135657930750669e-09,3.588240156623964e-05
3.9706240482870996,-3.931889872864259e-05,-6.390353188803262e-09,3.9312508375453787e-05
4.014257279586958,-4.202132664208725e-05,-6.612172963775721e-09,4.201471446912347e-05
4.057890510886816,-4.392983145279787e-05,-6.799522366324998e-09,4.392303193043155e-05
4.101523742186674,-4.498105279897246e-05,-6.950563431088468e-09,4.497410223554137e-05
4.145156973486532,-4.5112139950261454e-05,-7.06314661770162e-09,4.510507680364375e-05
4.1887902047863905,-4.4259286407536885e-05,-7.134714812830164e-09,4.425215169272406e-05
4.232423436086249,-4.235704243672288e-05,-7.162166910077288e-09,4.23498802698128e-05
4.276056667386107,-3.933909745276398e-05,-7.141660038517466e-09,3.933195579272546e-05
4.319689898685965,-3.51424495760687e-05,-7.068315301640874e-09,3.513538126076706e-05
4.363323129985823,-2.9719986365617955e-05,-6.9357654288993874e-09,2.9713050600189056e-05
4.406956361285682,-2.3075240873309226e-05,-6.735430586192735e-09,2.3068505442723032e-05
4.4505895925855405,-1.5360611216476542e-05,-6.455298502773755e-09,1.535415591797377e-05
4.494222823885399,-7.180976893596611e-06,-6.077732567502472e-09,7.174899161029109e-06
4.537856055185257,2.7145347524469173e-06,-5.575189133414159e-09,-2.77440063662927e-06
4.581489286485115,1.8976457322962078e-05,-4.900860680415863e-09,-1.9360887330101737e-05
4.625122517784973,4.9808519234459344e-05,-3.964828764438765e-09,-5.080865444791297e-05
4.6687557490848315,0.00012874570393247824,-2.558073976782195e-09,-0.0001313231760851046
4.71238898038469,0.0005993839566493664,4.0430138154940928e-19,-0.0006113716357823533
4.756022211684548,0.0006821267833152277,1.9501460077186603e-06,-0.0006938191729738136
4.799655442984406,0.0007454623107078462,5.670999122900239e-06,-0.0007547005577991029
4.843288674284264,0.0008024573478771952,1.0684581216785771e-05,-0.0008078219136179532
4.886921905584122,0.0008561754848794728,1.6869863596249905e-05,-0.0008564291309808123
4.930555136883981,0.0009078936005830274,2.414932965704155e-05,-0.0009019021429376464
4.974188368183839,0.0009582618045713121,3.246712452640411e-05,-0.0009449599161363341
5.017821599483697,0.0010076446614903842,4.178732624914516e-05,-0.0009860102284710466
5.061454830783555,0.0010562554775525109,5.2094107572026996e-05,-0.001025286479531534
5.105088062083413,0.0011042190194509164,6.33926083072043e-05,-0.0010629107915327304
5.148721293383272,0.0011516044033423258,7.570969985799727e-05,-0.001098926791551175
5.192354524683131,0.0011984438661827555,8.909284712375021e-05,-0.0011333198963826604
5.235987755982989,0.0012447442036062097,0.00010360571842445986,-0.0011660333692538741
5.279620987282847,0.001290494115608456,0.00011932155238320128,-0.0011969824455374239
5.323254218582705,0.0013356691347100945,0.0001363178000075509,-0.0012260647173967455
5.366887449882563,0.0013802350577437617,0.0001546752494866812,-0.0012531645094119555
5.410520681182422,0.0014241504145998424,0.00017448207662817353,-0.0012781513462636657
5.45415391248228,0.0014673682962432042,0.00019584149656599748,-0.0013008741656020707
5.497787143782138,0.0015098377439929742,0.00021888228738794707,-0.0013211522114848866
5.541420375081996,0.0015515048306635041,0.0002437730305329436,-0.0013387618967438306
5.585053606381854,0.0015923135203187067,0.0002707423391097294,-0.0013534174516153512
5.6286868376817125,0.0016322063656430276,0.00030010873962972085,-0.0013647417533261673
5.672320068981571,0.0016711250838996948,0.0003323258941716567,-0.001372221691406032
5.715953300281429,0.001709011040449465,0.00036805230549469384,-0.0013751389557637606
5.759586531581287,0.0017458056606512301,0.0004082606961345046,-0.00137246107772975
5.803219762881145,0.001781450785320748,0.000454413038773922,-0.0013626667622532412
5.8468529941810035,0.0018158889809466849,0.0005087472498875225,-0.0013434595106780961
5.890486225480862,0.001849063813016639,0.0005747608191612583,-0.0013112842701157135
5.93411945678072,0.0018809200887385867,0.0006580564791958184,-0.00126048201131754
5.977752688080578,0.0019114040739212717,0.0007678728874178957,-0.0011817592679818014
6.021385919380437,1.5454424709172522e-05,0.0009198772641870683,0.0009041137509837123
6.065019150680295,2.8569089188775103e-05,0.001140850401836859,0.0011117099308643084
6.1086523819801535,4.481941742418291e-05,0.0014738232361282762,0.0014281074303556097
6.152285613280012,6.433380267419256e-05,0.00197313338105106,0.0019075129023233834
6.19591884457987,8.777502469635121e-05,0.0026722889099831783,0.0025827583847929
6.239552075879728,0.00011720041341764988,0.0035506519923625855,0.0034311075706765825
