theta,z_plus,lambda_top,edge_margin
0.0,0.0021223160221879086,0.004645885699202323,0.0024811233565706567
0.04363323129985824,0.0021407559366164453,0.005869871789632081,0.0036863007342833065
0.08726646259971647,0.002157381822054473,0.00713794303411675,0.004937413575621188
0.1308996938995747,0.002172161401518934,0.00842534385282066,0.0062097392232713464
0.17453292519943295,0.0021850652427057938,0.009717455280195793,0.007488688732635884
0.2181661564992912,0.0021960667978646988,0.011004865821083544,0.00876487768726155
0.2617993877991494,0.0022051424300468902,0.01228093837717546,0.010031693098527632
0.30543261909900765,0.0022122714250194576,0.013540597167936045,0.011284080314416198
0.3490658503988659,0.0022174359879061213,0.01477969829189816,0.012517913584233915
0.39269908169872414,0.0022206212233366086,0.015994688084710162,0.01372965443690682
0.4363323129985824,0.0022218150975455873,0.017182409739701227,0.014916158340204728
0.4799655442984406,0.0022210083804347774,0.018339989822029033,0.01607456127398556
0.5235987755982988,0.0022181945650670727,0.019464769684997364,0.01720221122862895
0.5672320068981571,0.002213369761356514,0.020554263097212803,0.01829662594062916
0.6108652381980153,0.0022065325597934696,0.021606129690190233,0.019355466479200896
0.6544984694978736,0.0021976838598164613,0.02261815823626242,0.02037652069924963
0.6981317007977318,0.0021868266557907106,0.023588256187474774,0.02135769299856825
0.74176493209759,0.0021739657713036858,0.024514443284025342,0.02229699819729558
0.7853981633974483,0.002159107529381265,0.025394847849709877,0.023192558169740987
0.8290313946973065,0.0021422593418754837,0.026227704880262825,0.02404260035154983
0.8726646259971648,0.002123429195080156,0.027011355333077386,0.024845457554095625
0.916297857297023,0.00210262499966172,0.02774424621870627,0.025599568719051315
0.9599310885968813,0.00207985375975952,0.02842493121892327,0.02630348038396856
1.0035643198967394,0.00205512049617182,0.029052071638366567,0.02695584873227131
1.0471975511965976,0.0020284268277945407,0.02962443755218823,0.027555442187837797
1.0908307824964558,0.001999769066797358,0.030140909050125196,0.028101144601991892
1.1344640137963142,0.0019691356036301583,0.030600477503904017,0.028591959188201253
1.1780972450961724,0.0019365032240356275,0.031002246803683804,0.029027013515167465
1.2217304763960306,0.0019018317654163363,0.03134543452279273,0.02940556612206807
1.2653637076958888,0.0018650560891568316,0.0316293729799568,0.029727015769016832
1.3089969389957472,0.0018260735124715041,0.03185351017565355,0.029990915192932614
1.3526301702956054,0.0017847231279006141,0.03201741058489563,0.030196992994437
1.3962634015954636,0.0017407496289229601,0.03212075579318334,0.03034519117168192
1.4398966328953218,0.0016937349897962082,0.032163344965929715,0.030435735276337583
1.48352986419518,0.0016429561889003464,0.03214509514462377,0.030469279831945417
1.5271630954950384,0.0015870506813101517,0.03206604136556296,0.030447249670626602
1.5707963267948966,0.0015231484976382349,0.03192633659930608,0.030372725131715076
1.6144295580947547,0.001445955101045111,0.031726251511216885,0.030251377308150872
1.658062789394613,0.0013599881790744717,0.03146617404569878,0.030078986103042816
1.7016960206944713,0.0012822934301314147,0.03114660883909741,0.029838669540363367
1.7453292519943295,0.001216670051531914,0.030768176468900336,0.029527173016337786
1.7889624832941877,0.0011608225461469893,0.030331612549968204,0.029147573552898275
1.832595714594046,0.0011122028163272019,0.029837766692300836,0.02870331981964709
1.876228945893904,0.0010688715276015027,0.02928760133957124,0.028197352381417705
1.9198621771937625,0.0010294367372621414,0.028682190513751045,0.02763216504174366
1.9634954084936207,0.000992900890914612,0.028022718499181157,0.027009959590448253
2.007128639793479,0.0009585398411369274,0.027310478510240474,0.026332767872280807
2.050761871093337,0.0009258195226248228,0.02654687140155268,0.02560253548847536
2.0943951023931953,0.0008943400116665932,0.025733404500275663,0.024821177688375738
2.1380283336930535,0.0008637977814611702,0.024871690669201932,0.023990616932111537
2.1816615649929116,0.0008339598469745568,0.023963447751438903,0.023112808707524857
2.2252947962927703,0.0008046457253880108,0.023010498609040475,0.022189759969144705
2.2689280275926285,0.0007757146062125075,0.022014772059868848,0.02122354316153209
2.3125612588924866,0.0007470560511892552,0.02097830515671619,0.020216307984503152
2.356194490192345,0.0007185831249408321,0.01990324746961049,0.01917029268217084
2.399827721492203,0.0006902272243351473,0.01879186837637039,0.01808783660754854
2.443460952792061,0.000661934109062565,0.017646568925824196,0.01697139613458038
2.4870941840919194,0.000633660787337116,0.01646990077152924,0.01582356676844538
2.5307274153917776,0.0006053730086152022,0.0152645962772168,0.014647115808429294
2.574360646691636,0.0005770431774245943,0.014033616738517642,0.013445032697544556
2.6179938779914944,0.0005486485386916461,0.012780230887173026,0.012220609377707548
2.6616271092913526,0.0005201694995063865,0.01150814580680892,0.010977572917312405
2.705260340591211,0.0004915879436797957,0.010221732196040962,0.00972031249348757
2.748893571891069,0.0004628853544904786,0.008926427004548779,0.00845428394296849
2.792526803190927,0.0004340404634953859,0.007629485188765273,0.007186763915999979
2.8361600344907854,0.00040502593082262253,0.006341448953286357,0.005928322503847282
2.8797932657906435,0.00037580308840029844,0.005079128933096207,0.004695809782927903
2.9234264970905017,0.0003463126398912048,0.003871640629764566,0.003518401737075537
2.96705972839036,0.0003164561571040732,0.002770965585216039,0.0024481803049698843
3.0106929596902186,0.00028605359316618466,0.0018598579380001454,0.001568083272970637
3.0543261909900767,0.0002547234809136487,0.001228305835124785,0.0009684878845928632
3.097959422289935,0.00022139635609601092,0.0008678659330741134,0.0006420416498561823
3.141592653589793,0.0003470189709590884,0.0006113338707796842,0.000257374520401414
3.1852258848896513,0.00013606168663623646,0.00040338520266703385,0.0002646022822980727
3.2288591161895095,0.00010461891124669656,0.00024085936661294652,0.00013414807714131602
3.2724923474893677,8.067385102103647e-05,0.00011974299548495308,3.745566744349587e-05
3.316125578789226,6.187724949597315e-05,3.3431886915884104e-05,-2.9682907570008504e-05
3.359758810089084,4.67712831367158e-05,-4.1998043310837055e-10,-4.7707128779883224e-05
3.4033920413889427,3.44037227395662e-05,-1.2649227173978632e-09,-3.509306211707492e-05
3.447025272688801,2.4126590766465145e-05,-2.0615598571995034e-09,-2.4611184141651646e-05
3.490658503988659,1.5483998973202595e-05,-2.8120350881744645e-09,-1.5796490987754823e-05
3.5342917352885173,8.146262961484635e-06,-3.517930200538475e-09,-8.312706150914866e-06
3.5779249665883754,1.869465575630339e-06,-4.180375816401915e-09,-1.9110352629593476e-06
3.6215581978882336,-3.5309753647806558e-06,-4.800135596262682e-09,3.526175229184393e-06
3.665191429188092,-9.230746431678934e-06,-5.3776706013575286e-09,9.225368761077576e-06
3.70882466048795,-1.5491469662210264e-05,-5.913188213298929e-09,1.5485556473996967e-05
3.752457891787808,-2.1765690268865618e-05,-6.406678698766366e-09,2.1759283590166852e-05
3.796091123087667,-2.7781927102491772e-05,-6.8579415376010685e-09,2.7775069160954173e-05
3.839724354387525,-3.33736008774587e-05,-7.266602875512427e-09,3.3366334274583185e-05
3.883357585687383,-3.842281597018466e-05,-7.632124828740493e-09,3.841518384535592e-05
3.9269908169872414,-4.2837012772097666e-05,-7.953806782918357e-09,4.282905896531475e-05
3.9706240482870996,-4.6537611646694093e-05,-8.230778217085142e-09,4.652938086847701e-05
4.014257279586958,-4.94537339301999e-05,-8.46198185956271e-09,4.944527194834034e-05
4.057890510886816,-5.1518284773845954e-05,-8.646145037364506e-09,5.150963862880859e-05
4.101523742186674,-5.2665198109216956e-05,-8.781735720152584e-09,5.26564163734968e-05
4.145156973486532,-5.2827282358156334e-05,-8.86689771338788e-09,5.2818415460442946e-05
4.1887902047863905,-5.193444268139253e-05,-8.89935617687263e-09,5.192554332521566e-05
4.232423436086249,-4.99123415966977e-05,-8.876279218954431e-09,4.990346531747874e-05
4.276056667386107,-4.6682008050697165e-05,-8.794071909278325e-09,4.667321397878789e-05
4.319689898685965,-4.21619119077429e-05,-8.648062036130201e-09,4.215326384570677e-05
4.363323129985823,-3.627664298095057e-05,-8.43200454098402e-09,3.6268210976409586e-05
4.406956361285682,-2.8983848901515214e-05,-8.137266127528575e-09,2.8975711635387685e-05
4.4505895925855405,-2.035506156861809e-05,-7.751409216157252e-09,2.0347310159401932e-05
4.494222823885399,-1.0834449418499809e-05,-7.255552939547406e-09,1.0827193865560261e-05
4.537856055185257,-6.043761730679017e-07,-6.618936141792211e-09,5.977572369261095e-07
4.581489286485115,1.5694865756430107e-05,-5.785416674136933e-09,-1.6014548488232845e-05
4.625122517784973,4.6631067061669546e-05,-4.597191261733929e-09,-4.756828559416467e-05
4.6687557490848315,0.00012601152956455682,-2.626322150578688e-09,-0.00012853438647799856
4.71238898038469,0.0005977919101910639,5.214644738893692e-19,-0.0006097477483948846
4.756022211684548,0.00068174202415402,1.9168809975252127e-06,-0.0006934599836395752
4.799655442984406,0.0007463994605480518,5.198209336984174e-06,-0.0007561292404220287
4.843288674284264,0.0008046999862214325,9.714174362471524e-06,-0.0008110798115833897
4.886921905584122,0.0008597159940735705,1.5340276325103694e-05,-0.0008615700376299382
4.930555136883981,0.0009127310610400887,2.1999215718453978e-05,-0.0009089864665424366
4.974188368183839,0.0009643988316222368,2.9890568834859258e-05,-0.0009537962394198223
5.017821599483697,0.001015085402629844,3.9284747090804855e-05,-0.000996102363591636
5.061454830783555,0.0010650043697765282,4.9820104158519694e-05,-0.0010364843530135393
5.105088062083413,0.0011142799909182172,6.138189007428148e-05,-0.0010751837006623
5.148721293383272,0.001162980340711789,7.392589674613584e-05,-0.001112314050779889
5.192354524683131,0.0012111362476250605,8.74348308315085e-05,-0.001147924141746053
5.235987755982989,0.0012587528396718903,0.00010191232219030292,-0.0011820155742750253
5.279620987282847,0.0013058169632083724,0.00011738071520711444,-0.0012145525872654253
5.323254218582705,0.0013523021625458961,0.00013387979157660905,-0.001245468414220205
5.366887449882563,0.0013981721492237345,0.00015146622727105365,-0.0012746693649371556
5.410520681182422,0.001443383298965219,0.00017021425803692927,-0.0013020367069075942
5.45415391248228,0.0014878865015777432,0.0001902183039899798,-0.0013274259276193183
5.497787143782138,0.0015316285676935629,0.00021159843445499207,-0.001350662704592442
5.541420375081996,0.0015745533242112052,0.00023450974648837864,-0.0013715346442070508
5.585053606381854,0.0016166024860435478,0.0002591572008339739,-0.001389777334930445
5.6286868376817125,0.00165771636376481,0.00028581840956353095,-0.001405052281476575
5.672320068981571,0.0016978344485401378,0.00031487855538205674,-0.001416912582128884
5.715953300281429,0.0017368959036048706,0.0003468845162466962,-0.001424749305430272
5.759586531581287,0.001774839983326479,0.0003826303598079687,-0.0014277064231850397
5.803219762881145,0.0018116063951794095,0.0004232958111322101,-0.0014245427119507874
5.8468529941810035,0.001847135615944935,0.0004706779601200189,-0.0014134003681438147
5.890486225480862,0.0018813691705719497,0.0005275957491431399,-0.0013914008048402488
5.93411945678072,0.0019142498800457694,0.0005986332866475673,-0.0013539015909991175
5.977752688080578,0.0019457220830740303,0.0006915816886403668,-0.0012930548360951442
6.021385919380437,0.0019757318352515967,0.0008203558175066562,-0.0011948906544499726
6.065019150680295,2.614570508410879e-05,0.0010108674723377695,0.0009841988531519785
6.1086523819801535,4.2489358326197896e-05,0.0013110525967581625,0.0012677134512654406
6.152285613280012,6.224145398262465e-05,0.001796367387250513,0.0017328811041882359
6.19591884457987,8.60281187912323e-05,0.0025338063034989287,0.0024460576223318715
6.239552075879728,0.00011588782356521213,0.003509893889938203,0.0033916883099016867
