theta,z_plus,lambda_top,edge_margin
0.0,0.0021500613595442,0.004362432524498024,0.00216936993776294
0.04363323129985824,0.002168822701357079,0.005607747104439707,0.0033955479490554857
0.08726646259971647,0.002185741896650149,0.006906271017510765,0.004676814282927613
0.1308996938995747,0.0022007861017312703,0.0082285985478521,0.0059837967240862055
0.17453292519943295,0.0022139253660603503,0.00955797467936741,0.007299770805985852
0.2181661564992912,0.002225132672914355,0.01088395581827209,0.008614320491899446
0.2617993877991494,0.002234383966242893,0.012199361061562566,0.009920289415994816
0.30543261909900765,0.002241658162998024,0.013498797169629748,0.011212305843371764
0.3490658503988659,0.0022469371499863164,0.014777913521573167,0.012486037628587124
0.39269908169872414,0.002250205764009686,0.016033006781361332,0.013737796902071452
0.4363323129985824,0.002251451753716349,0.01726080128666532,0.014964320497874644
0.4799655442984406,0.0022506657211506294,0.018458322152918816,0.016162643117345173
0.5235987755982988,0.0022478410404388064,0.0196228195665906,0.017330021705343018
0.5672320068981571,0.0022429737503344388,0.020751722512300556,0.01846388928695943
0.6108652381980153,0.002236062416410421,0.021842610039338774,0.019561826374600143
0.6544984694978736,0.002227107957441601,0.022893193307782153,0.02062154319119172
0.6981317007977318,0.002216113428849251,0.02390130443601938,0.021640868738593142
0.74176493209759,0.0022030837538000152,0.024864889733621207,0.02261774430474519
0.7853981633974483,0.002188025389404945,0.025782005809835702,0.02355021991264266
0.8290313946973065,0.0021709459110547742,0.02665081758960295,0.02443645276032708
0.8726646259971648,0.002151853491651266,0.02746959760144145,0.02527470703995716
0.916297857297023,0.002130756243406427,0.028236726110681266,0.02606335474240671
0.9599310885968813,0.002107661376470735,0.02895069180604446,0.026800877202044313
1.0035643198967394,0.0020825741084434385,0.029610092835920754,0.027485867245308448
1.0471975511965976,0.002055496227647233,0.03021363804983964,0.028117031897639463
1.0908307824964558,0.002026424163691189,0.030760148340969608,0.028693195694004595
1.1344640137963142,0.001995346338335361,0.0312485580134558,0.029213304748353732
1.1780972450961724,0.0019622394338335205,0.0316779161181502,0.029676431895640006
1.2217304763960306,0.0019270629776685971,0.03204738771445842,0.03008178347723645
1.2653637076958888,0.0018897512053953902,0.03235625502637318,0.030428708796869885
1.3089969389957472,0.0018502003174276096,0.03260391846846197,0.03071671414468581
1.3526301702956054,0.001808247502714696,0.03278989752341961,0.030945485070650623
1.3962634015954636,0.0017636342286883077,0.03291383145733649,0.03111492454407442
1.4398966328953218,0.0017159368605885086,0.03297547986245636,0.03122522426465608
1.48352986419518,0.0016644220196174498,0.03297472302018751,0.03127701256017771
1.5271630954950384,0.0016077058500504776,0.032911562079686776,0.03127170211263529
1.5707963267948966,0.0015428664114497735,0.03278611904962843,0.03121239530994966
1.6144295580947547,0.0014644890674344634,0.032598636602923545,0.031104857754140392
1.658062789394613,0.0013772019024477012,0.03234947769629426,0.030944731755797605
1.7016960206944713,0.0012983983352668211,0.03203912500884698,0.030714758706874824
1.7453292519943295,0.001231887618604338,0.031668180206255066,0.03041165483527864
1.7889624832941877,0.0011753069059072929,0.03123736304000982,0.03003854999598438
1.832595714594046,0.0011260577259234609,0.030747510294616996,0.029598931414175068
1.876228945893904,0.0010821678490362154,0.030199574599863138,0.0290957633938462
1.9198621771937625,0.0010422237608731187,0.029594623130703213,0.02853155489461263
1.9634954084936207,0.0010052133849769171,0.028933836224425802,0.027908518571749346
2.007128639793479,0.0009704025244718988,0.02821850595425053,0.027228695379289194
2.050761871093337,0.0009372499898090631,0.027450034711457377,0.026494039721852134
2.0943951023931953,0.000905350706334604,0.026629933866094524,0.025706476145633227
2.1380283336930535,0.0008743973660593656,0.0257598226016314,0.024867937288250846
2.1816615649929116,0.0008441541781502964,0.024841427055245724,0.02398038979353242
2.2252947962927703,0.000814438564336172,0.023876579948443798,0.023045852612820904
2.2689280275926285,0.0007851081462279955,0.022867220971486905,0.02206641066233435
2.3125612588924866,0.0007560513161327956,0.02181539830438295,0.0210442259619275
2.356194490192345,0.0007271802745455712,0.02072327184154773,0.019981547961511248
2.399827721492203,0.0006984257909234635,0.019593118978439926,0.018880724671697994
2.443460952792061,0.0006697331828185454,0.01842734428958115,0.017744216443106232
2.4870941840919194,0.0006410591623267469,0.017228495209739403,0.016574614864166122
2.5307274153917776,0.000612369298380158,0.015999287167270664,0.015374670482922903
2.574360646691636,0.0005836359066502771,0.014742643977991233,0.01414733535320795
2.6179938779914944,0.0005548362158184965,0.013461763619697788,0.012895830679562922
2.6616271092913526,0.000525950673986151,0.012160227698672244,0.01162375801120637
2.705260340591211,0.00049696125071177,0.010842189155589932,0.010335288679863927
2.748893571891069,0.0004678495493675726,0.009512706439182273,0.009035499898827348
2.792526803190927,0.0004385944469809029,0.008178365556735994,0.007730999220815473
2.8361600344907854,0.00040916876597692204,0.006848496951119755,0.006431144809823294
2.8797932657906435,0.00037953400731673614,0.005537673905512311,0.00515054921804924
2.9234264970905017,0.000349631034071573,0.004270981338443483,0.003914357683690479
2.96705972839036,0.00031936153203435504,0.0030944685353379523,0.00276871977266291
3.0106929596902186,0.00028854542505740076,0.002088870242513548,0.001794553908954999
3.0543261909900767,0.0002568007423074576,0.0013597852100909807,0.001097848452937374
3.097959422289935,0.00022305545276177902,0.0009405330567143572,0.0007130164948973426
3.141592653589793,0.00034939815598868313,0.0006669360212634174,0.00031054990215496057
3.1852258848896513,0.00013661809686616288,0.00044853493142544594,0.0003091844726219598
3.2288591161895095,0.00010479070130998792,0.00027426308695480123,0.00016737657161861356
3.2724923474893677,8.05854064785764e-05,0.0001397901020269926,5.759298741884469e-05
3.316125578789226,6.160420672799799e-05,3.973520885586332e-05,-2.310108200669463e-05
3.359758810089084,4.6362350029681795e-05,-3.9004984737403963e-10,-4.7289987080122805e-05
3.4033920413889427,3.389172901624877e-05,-1.1829786767509687e-09,-3.457074657525049e-05
3.447025272688801,2.353450171135911e-05,-1.9402999671821994e-09,-2.4007132045553473e-05
3.490658503988659,1.4828383674922946e-05,-2.6620776674803704e-09,-1.5127613426088885e-05
3.5342917352885173,7.439392509053685e-06,-3.3481539480005195e-09,-7.591528513182759e-06
3.5779249665883754,1.1206344133888605e-06,-3.998185011278954e-09,-1.1470452866679168e-06
3.6215581978882336,-4.355566530365582e-06,-4.611667860522042e-09,4.35095486250506e-06
3.665191429188092,-1.0404410309236874e-05,-5.187959839070268e-09,1.0399222349397805e-05
3.70882466048795,-1.692771513587471e-05,-5.726292117176227e-09,1.6921988843757534e-05
3.752457891787808,-2.3420794180294163e-05,-6.225777837311522e-09,2.341456840245685e-05
3.796091123087667,-2.9626302374930295e-05,-6.685415258920369e-09,2.9619616959671376e-05
3.839724354387525,-3.538335028715026e-05,-7.104085916925121e-09,3.537624620123334e-05
3.883357585687383,-4.0576443274745454e-05,-7.480547486471321e-09,4.0568962727258985e-05
3.9269908169872414,-4.511388463375957e-05,-7.813420684607435e-09,4.5106071213074965e-05
3.9706240482870996,-4.891711965210593e-05,-8.101169098456994e-09,4.890901848300747e-05
4.014257279586958,-5.191475969574438e-05,-8.342070240372355e-09,5.190641762550401e-05
4.057890510886816,-5.4038790657358365e-05,-8.534175298511287e-09,5.403025648205986e-05
4.101523742186674,-5.522184780218203e-05,-8.675253836214938e-09,5.521317254834582e-05
4.145156973486532,-5.539502454858434e-05,-8.762717830439064e-09,5.53862618307539e-05
4.1887902047863905,-5.448599370648551e-05,-8.793516513999137e-09,5.4477200189971513e-05
4.232423436086249,-5.2417485600521406e-05,-8.763988705157848e-09,5.240872161181625e-05
4.276056667386107,-4.910658979342846e-05,-8.669651216866346e-09,4.909792014221159e-05
4.319689898685965,-4.4466307015413395e-05,-8.504887679820525e-09,4.445780212773358e-05
4.363323129985823,-3.841329866800174e-05,-8.262475772591029e-09,3.840503619222915e-05
4.406956361285682,-3.089304805135204e-05,-7.932839555020103e-09,3.088511521179702e-05
4.4505895925855405,-2.1956925299050892e-05,-7.502807300193134e-09,2.19494224917507e-05
4.494222823885399,-1.2011714940540972e-05,-6.953418530536096e-09,1.2004761522010436e-05
4.537856055185257,-1.55241889153583e-06,-6.255750892570044e-09,1.54616314064326e-06
4.581489286485115,1.4776090056439633e-05,-5.3622100274391495e-09,-1.5076974067595866e-05
4.625122517784973,4.579072872906818e-05,-4.18619715548785e-09,-4.671072950080503e-05
4.6687557490848315,0.00012550416413129292,-2.5479934443064045e-09,-0.00012801679540736308
4.71238898038469,0.0006020472554937299,5.829917250820277e-19,-0.000614088200603604
4.756022211684548,0.0006869928518556926,1.904801126844616e-06,-0.0006988279077659619
4.799655442984406,0.0007525227896649537,5.453742529774089e-06,-0.0007621195029284787
4.843288674284264,0.0008116413200738716,1.0199989790118873e-05,-0.0008176741566852301
4.886921905584122,0.0008674475035124482,1.5996265290718586e-05,-0.0008688001882919787
4.930555136883981,0.0009212368528738195,2.2794154067478927e-05,-0.000916867435863817
4.974188368183839,0.0009736691154457245,3.112968253050968e-05,-0.0009620128152241292
5.017821599483697,0.0010251136785604182,4.12451304058967e-05,-0.0010043708217257299
5.061454830783555,0.0010757858885901141,5.265128140992082e-05,-0.0010446503249519955
5.105088062083413,0.001125810833110385,6.523580919982444e-05,-0.0010830912405727683
5.148721293383272,0.0011752568291430662,7.89354808900729e-05,-0.0011198264848358548
5.192354524683131,0.0012241545544418747,9.370610871315522e-05,-0.0011549315368175569
5.235987755982989,0.0012725087135178157,0.00010951762761817418,-0.001188441260169998
5.279620987282847,0.0013203055347559879,0.0001263524452486907,-0.001220359200202417
5.323254218582705,0.0013675178032416136,0.00014420513011055604,-0.0012506630291958898
5.366887449882563,0.0014141083675515826,0.00016308304831539792,-0.0012793074865872162
5.410520681182422,0.0014600326640502078,0.00018300791732476284,-0.0013062254000064492
5.45415391248228,0.0015052405873134098,0.00020401845937490922,-0.0013313269396847689
5.497787143782138,0.0015496779127023678,0.00022617456833623064,-0.0013544969026201845
5.541420375081996,0.001593287404327984,0.00024956373314131904,-0.0013755894192732246
5.585053606381854,0.0016360096969342426,0.00027431099001128383,-0.0013944189008616437
5.6286868376817125,0.0016777840119220407,0.000300594574979832,-0.0014107451171806497
5.672320068981571,0.0017185487493352456,0.0003286710303044203,-0.0014242486940175304
5.715953300281429,0.0017582419853863262,0.0003589163739140772,-0.0014344904511799756
5.759586531581287,0.001796801896777594,0.00039189519540015126,-0.0014408427393129946
5.803219762881145,0.001834167127310776,0.00042847933199465177,-0.0014423711378623396
5.8468529941810035,0.0018702771082166898,0.0004700561304607347,-0.0014376265199202887
5.890486225480862,0.0019050723407299536,0.0005189009136857662,-0.0014242728738587864
5.93411945678072,0.0019384946473224394,0.000578855364710414,-0.0013984091755584742
5.977752688080578,0.0019704873964547583,0.0006565946228435814,-0.0013533025215402721
6.021385919380437,0.002000995704545592,0.0007640963518160313,-0.001276919266820473
6.065019150680295,2.5711820461959336e-05,0.0009236709695243786,0.0008974449126531801
6.1086523819801535,4.220881426313108e-05,0.0011777304850097534,0.0011346774944613596
6.152285613280012,6.218299048818352e-05,0.0016003025801833819,0.0015368759298854348
6.19591884457987,8.625458005820026e-05,0.002277363934467493,0.002189384262808129
6.239552075879728,0.00011647301467758767,0.003223838925230667,0.0031050364502595274
