theta,z_plus,lambda_top,edge_margin
0.0,0.002151308477178129,0.0046642409262562644,0.002469906279534573
0.04363323129985824,0.002169914723013937,0.00589012935097912,0.003676816333504904
0.08726646259971647,0.002186685435851494,0.007161990590355077,0.0049315714457865535
0.1308996938995747,0.002201588041755821,0.008454394316607064,0.006208774514016127
0.17453292519943295,0.002214592838574553,0.009752278950492473,0.007493394255146429
0.2181661564992912,0.002225673035942897,0.01104595425423056,0.008775767757568805
0.2617993877991494,0.0022348047814433366,0.012328603735915294,0.010049102858843091
0.30543261909900765,0.0022419671721985103,0.01359503128448996,0.01130822476884748
0.3490658503988659,0.0022471422509377373,0.014841008427337765,0.012548923331381273
0.39269908169872414,0.002250314985293451,0.016062919237700347,0.013767597952701027
0.4363323129985824,0.002251473228735162,0.01725755903052307,0.014961056337213204
0.4799655442984406,0.002250607661111723,0.018422016078632794,0.016126396264298837
0.5235987755982988,0.0022477117062156314,0.019553600041610983,0.01726093410127104
0.5672320068981571,0.002242781423062193,0.020649797682939203,0.018362160631415766
0.6108652381980153,0.002235815366630775,0.021708245066778518,0.019427713392815127
0.6544984694978736,0.0022268144125592235,0.022726709999166303,0.020455359298355895
0.6981317007977318,0.002215781538592726,0.023703080996834616,0.021442983827470036
0.74176493209759,0.0022027215532857782,0.024635360501166957,0.02238858451681546
0.7853981633974483,0.0021876407592752536,0.025521660897186126,0.023290267322725367
0.8290313946973065,0.0021705465339849897,0.02636020240624333,0.02414624494157864
0.8726646259971648,0.002151446804275807,0.027149312236325093,0.02495483649596377
0.916297857297023,0.0021303493823625385,0.027887424573851363,0.025714468203841573
0.9599310885968813,0.002107261116750417,0.028573081130428148,0.02642367479134272
1.0035643198967394,0.0020821867914879878,0.029204932043700345,0.027081101516382596
1.0471975511965976,0.002055127675467245,0.029781736989164052,0.027685506760187464
1.0908307824964558,0.0020260795734896196,0.030302366399368223,0.02823576523440881
1.1344640137963142,0.001995030149187615,0.03076580271452687,0.028730871962355502
1.1780972450961724,0.001961955152062575,0.031171141608124543,0.02916994735302072
1.2217304763960306,0.0019268129389184195,0.03151759314519838,0.02955224394750159
1.2653637076958888,0.0018895362354382742,0.03180448284132177,0.029877155881174733
1.3089969389957472,0.0018500192223409263,0.03203125259803846,0.030144232991250717
1.3526301702956054,0.0018080962525207178,0.032197461496388344,0.03035320331881721
1.3962634015954636,0.0017635045438290984,0.03230278643476271,0.030504011800057032
1.4398966328953218,0.0017158135058471917,0.03234702260102057,0.030596892825056433
1.48352986419518,0.0016642768757766963,0.032330083771861085,0.030632521358568855
1.5271630954950384,0.001607482238783578,0.032252002435094476,0.030612370551535227
1.5707963267948966,0.0015424262923402492,0.03211292973284685,0.0305396549146598
1.6144295580947547,0.0014634711948562553,0.031913135226015674,0.030420394607262292
1.658062789394613,0.0013754341051474904,0.03165300648258583,0.03025006369533539
1.7016960206944713,0.0012961822710170845,0.03133304849485187,0.030010942578414444
1.7453292519943295,0.0012294430318695107,0.030953882933313262,0.02969985104080636
1.7889624832941877,0.001172753994245658,0.030516247248189875,0.029320038174059305
1.832595714594046,0.0011234658317071757,0.03002099363336385,0.02887505848502253
1.876228945893904,0.0010795800598302277,0.029469087872395244,0.028367916211368412
1.9198621771937625,0.0010396686593624894,0.028861608092491428,0.02780114605994169
1.9634954084936207,0.0010027109945203252,0.02819974346052309,0.02717697824611236
2.007128639793479,0.0009679675144273517,0.02748479286622138,0.02649746600150548
2.050761871093337,0.0009348935025142819,0.026718163652802482,0.025764572280237916
2.0943951023931953,0.0009030814487721798,0.025901370476310033,0.02498022739856241
2.1380283336930535,0.000872222288780329,0.025036034404755457,0.024146367670199523
2.1816615649929116,0.0008420789122746462,0.024123882411013868,0.02326496192049373
2.2252947962927703,0.0008124677114540545,0.023166747476216554,0.022338030410533418
2.2689280275926285,0.0007832454760342201,0.02216656961395279,0.021367659228397885
2.3125612588924866,0.0007542999046412168,0.021125398267731257,0.020356012364997216
2.356194490192345,0.0007255426031607079,0.02004539675447379,0.019305343299249867
2.399827721492203,0.0006969038191980166,0.018928849775909633,0.018218007880327656
2.443460952792061,0.0006683284031527579,0.017778175586227594,0.017096480615011782
2.4870941840919194,0.0006397726419473345,0.01659594534791551,0.015943377253129228
2.5307274153917776,0.0006112017119787955,0.015384913824992404,0.014761488078774032
2.574360646691636,0.0005825875616472961,0.014148068423345234,0.013553829110464991
2.6179938779914944,0.0005539070710718259,0.012888708824628843,0.01232372361213558
2.6616271092913526,0.0005251403516744024,0.011610579413515634,0.011074936254807743
2.705260340591211,0.0004962690398658752,0.010318096390650112,0.009811901969986919
2.748893571891069,0.00046727439780937615,0.009016752063840283,0.008540132178074719
2.792526803190927,0.0004381349357371337,0.007713865748250309,0.007266968113798433
2.8361600344907854,0.00040882305555147786,0.0064200411200863085,0.006003041603423801
2.8797932657906435,0.0003792997362503635,0.005152094903721375,0.004765209172746004
2.9234264970905017,0.00034950513136518165,0.003938905339573908,0.0035824101055814232
2.96705972839036,0.0003193398604042596,0.0028314163173498,0.002505689659737455
3.0106929596902186,0.0002886220486499701,0.001909347302278882,0.0016149528126559126
3.0543261909900767,0.0002569661827487929,0.0012545262810121486,0.00099242077460838
3.097959422289935,0.00022329104622394449,0.0008696663116503617,0.0006419094445019384
3.141592653589793,0.000349782946398606,0.0006096312176543859,0.00025285261232780773
3.1852258848896513,0.0001369590245853265,0.0004028413056219911,0.00026314310054495807
3.2288591161895095,0.00010520060664820617,0.0002417111803693034,0.0001344065615881331
3.2724923474893677,8.105313553730058e-05,0.00012071353795880457,3.8039339710757984e-05
3.316125578789226,6.212056839048231e-05,3.354195691297514e-05,-2.9821022845316823e-05
3.359758810089084,4.691990484339162e-05,-4.038731833812947e-10,-4.785870681344284e-05
3.4033920413889427,3.44844567397143e-05,-1.2284199975504903e-09,-3.5175374294506137e-05
3.447025272688801,2.415749977743194e-05,-2.020548756551288e-09,-2.464267032173713e-05
3.490658503988659,1.5477624788712335e-05,-2.779969201764349e-09,-1.5789957253688345e-05
3.5342917352885173,8.111537135513113e-06,-3.5061825685255047e-09,-8.2772740607919e-06
3.5779249665883754,1.8128872903847602e-06,-4.198513298579903e-09,-1.8533435494910352e-06
3.6215581978882336,-3.605822415361782e-06,-4.8561322102063456e-09,3.600966283151576e-06
3.665191429188092,-9.359313271590262e-06,-5.478072610130416e-09,9.35383519898013e-06
3.70882466048795,-1.5672265455301453e-05,-6.063240287553111e-09,1.56662022150139e-05
3.752457891787808,-2.1997073199546227e-05,-6.6104178921833535e-09,2.1990462781654043e-05
3.796091123087667,-2.8061370764969265e-05,-7.118263828910055e-09,2.8054252501140354e-05
3.839724354387525,-3.3697734855497775e-05,-7.585305441454072e-09,3.369014955005632e-05
3.883357585687383,-3.8787523910483396e-05,-8.00992587694821e-09,3.8779513984606445e-05
3.9269908169872414,-4.3237505571932666e-05,-8.390343570280391e-09,4.322911522836238e-05
3.9706240482870996,-4.696847195653879e-05,-8.724582709718106e-09,4.695974737382907e-05
4.014257279586958,-4.990893753151889e-05,-9.010432257197908e-09,4.989992709926169e-05
4.057890510886816,-5.1991203549027017e-05,-9.245389984376879e-09,5.1981958159042636e-05
4.101523742186674,-5.3148587492344717e-05,-9.426586347810546e-09,5.313916090599691e-05
4.145156973486532,-5.3313254870455134e-05,-9.5506805634182e-09,5.3303704189891716e-05
4.1887902047863905,-5.241442876466096e-05,-9.613717422522151e-09,5.2404815047238436e-05
4.232423436086249,-5.037703998425727e-05,-9.610927318293087e-09,5.036742905693897e-05
4.276056667386107,-4.712133175490435e-05,-9.53644202979946e-09,4.711179531287455e-05
4.319689898685965,-4.256494610377023e-05,-9.382882070478378e-09,4.2555563221699756e-05
4.363323129985823,-3.663165658299607e-05,-9.140742194917347e-09,3.6622515840801155e-05
4.406956361285682,-2.92784655364271e-05,-8.79744858064607e-09,2.9269668087846452e-05
4.4505895925855405,-2.057685774789906e-05,-8.335859966535064e-09,2.0568521887932525e-05
4.494222823885399,-1.0972643393827388e-05,-7.731779648516079e-09,1.0964911614178871e-05
4.537856055185257,-6.975462429351558e-07,-6.949592087789908e-09,6.90596650847366e-07
4.581489286485115,1.5640343973922705e-05,-5.934010473614827e-09,-1.5959084863874775e-05
4.625122517784973,4.667860911335142e-05,-4.59258725855355e-09,-4.7616773882877004e-05
4.6687557490848315,0.00012649382605337518,-2.751204039551213e-09,-0.00012902645377848223
4.71238898038469,0.0006086428494785831,5.825404645232981e-19,-0.0006208157064681542
4.756022211684548,0.0006940237696359291,1.8398133716644097e-06,-0.0007060644316569832
4.799655442984406,0.0007596254532058734,5.062771927734633e-06,-0.0007697551903422563
4.843288674284264,0.0008187310720676129,9.549570887204786e-06,-0.0008255561226217604
4.886921905584122,0.0008744804926274088,1.540370774771316e-05,-0.0008765663947322438
4.930555136883981,0.0009281841294024819,2.3495873889424462e-05,-0.000923251938101107
4.974188368183839,0.0009805091740060726,3.32032799545294e-05,-0.0009669160775316647
5.017821599483697,0.0010318294520673002,4.4311885056537895e-05,-0.0010081541560521083
5.061454830783555,0.0010823632858827175,5.6692600946057306e-05,-0.0010473179506543145
5.105088062083413,0.001132237934838033,7.024707692581939e-05,-0.0010846356166089744
5.148721293383272,0.0011815234054777003,8.489971497463757e-05,-0.0011202541586126167
5.192354524683131,0.0012302517563053514,0.00010059256050445253,-0.001154264230927006
5.235987755982989,0.0012784288644959437,0.00011728226933496628,-0.0011867151724508963
5.279620987282847,0.0013260419848669597,0.00013493869602652456,-0.0012176241285377742
5.323254218582705,0.001373064822458567,0.00015354480862232408,-0.0012469813102854142
5.366887449882563,0.0014194610658171656,0.00017309787543193697,-0.001274752411701572
5.410520681182422,0.0014651869294668518,0.00019361212500165878,-0.0013008785430545303
5.45415391248228,0.001510193037097185,0.00021512338031451597,-0.0013252735175246129
5.497787143782138,0.0015544258532646203,0.00023769657959425304,-0.0013478177907356595
5.541420375081996,0.0015978287979742816,0.0002614377081813321,-0.0013683476657524352
5.585053606381854,0.0016403431334051425,0.00028651258062659677,-0.0013866374154466485
5.6286868376817125,0.0016819086834933387,0.0003131762002907914,-0.001402370656872414
5.672320068981571,0.0017224644285342115,0.00034181801635872565,-0.0014150957007461702
5.715953300281429,0.0017619490046182778,0.0003730299987524768,-0.0014241579859581666
5.759586531581287,0.0018003011293273687,0.00040770606333144635,-0.0014286010885824697
5.803219762881145,0.0018374599693075611,0.0004471858525952213,-0.001427023316098491
5.8468529941810035,0.0018733654612423322,0.0004934735042522985,-0.0014173592662148804
5.890486225480862,0.001907958594819616,0.000549611009875556,-0.0013965067568404523
5.93411945678072,0.0019411816641587204,0.0006203862278255449,-0.0013596190696163499
5.977752688080578,0.0019729784925965168,0.0007137457353689989,-0.0012986923270794483
6.021385919380437,0.0020032946345638746,0.000843666431527806,-0.001199694095727346
6.065019150680295,2.6337412058401518e-05,0.0010358815276637653,0.0010090173673641958
6.1086523819801535,4.2824524289006234e-05,0.0013375095500416136,0.0012938285352668273
6.152285613280012,6.2747529303754e-05,0.0018222383470249206,0.0017582358671350915
6.19591884457987,8.673522641487074e-05,0.002556304271932217,0.0024678343409890485
6.239552075879728,0.00011683882393678198,0.0035290217294178987,0.003409846129002381
