theta,z_plus,lambda_top,edge_margin
0.0,0.0020929243498442013,0.003229460130664558,0.001094677293823473
0.04363323129985824,0.0021111577493536297,0.004297709439119082,0.002144328534778379
0.08726646259971647,0.0021276001408917175,0.005469481169040141,0.0032993290253305893
0.1308996938995747,0.002142219610605894,0.006694876889792704,0.004509812886974692
0.17453292519943295,0.0021549870566764874,0.007945294122435265,0.005747207324625248
0.2181661564992912,0.0021658762288549564,0.009204071467637843,0.006994877714205787
0.2617993877991494,0.002174863754576507,0.010460739295465659,0.008242378265797622
0.30543261909900765,0.002181929150951987,0.011708103324792229,0.009482535590821201
0.3490658503988659,0.002187054821715082,0.012940788993129268,0.010709993074979884
0.39269908169872414,0.002190226037927558,0.014154491650627633,0.011920461091941524
0.4363323129985824,0.0021914309009101436,0.01534557341249784,0.013110313893569493
0.4799655442984406,0.0021906602854467857,0.016510837058420047,0.014276363567264326
0.5235987755982988,0.0021879077607747854,0.01764739439764388,0.015415728481653599
0.5672320068981571,0.00218316948618074,0.018752587210206145,0.01652575433430179
0.6108652381980153,0.002176444077114051,0.019823938600994996,0.017603965642338664
0.6544984694978736,0.0021677324365236414,0.020859122561222028,0.018648035475967915
0.6981317007977318,0.00215703754450154,0.021855944762950587,0.019655766467559017
0.74176493209759,0.002144364197107486,0.022812330465148148,0.020625078984098513
0.7853981633974483,0.0021297186821979458,0.02372631702011171,0.021554003964269805
0.8290313946973065,0.0021131083758091653,0.024596049407235435,0.022440678863910088
0.8726646259971648,0.0020945412365621944,0.025419777783502906,0.023283345722209466
0.916297857297023,0.0020740251667539563,0.026195856386204308,0.02408035071611527
0.9599310885968813,0.0020515671958109996,0.026922743341549468,0.02483014480182225
1.0035643198967394,0.0020271724222188916,0.02759900107343094,0.02553128520276767
1.0471975511965976,0.0020008426198750953,0.02822329709904181,0.026182437626769212
1.0908307824964558,0.0019725743670686953,0.028794405060016653,0.026782379205606582
1.1344640137963142,0.0019423564784532366,0.029311205880043184,0.027330002272020884
1.1780972450961724,0.0019101663891340811,0.029772688969238133,0.02782431925232137
1.2217304763960306,0.001875964909956972,0.03017795341629178,0.02826446920813567
1.2653637076958888,0.001839688351369005,0.030526209124245827,0.028649727005849442
1.3089969389957472,0.0018012361982491147,0.030816777856615893,0.028979516934401796
1.3526301702956054,0.0017604508414121333,0.03104909416862999,0.029253434310389615
1.3962634015954636,0.001717082152630148,0.03122270620446454,0.029471282408781788
1.4398966328953218,0.0016707206570484871,0.03133727634609698,0.029633141275907524
1.48352986419518,0.0016206586119105442,0.0313925817031674,0.029739509919018647
1.5271630954950384,0.0015655643702005275,0.031388514436341414,0.029791638778736876
1.5707963267948966,0.0015026429313300773,0.031325081909314836,0.02979238611935816
1.6144295580947547,0.0014267714872074312,0.03120240666696163,0.02974709975001005
1.658062789394613,0.0013423216210832654,0.031020726239344737,0.029651558185839807
1.7016960206944713,0.001265888305400764,0.03078039277350248,0.0294891867019937
1.7453292519943295,0.0012012585022871884,0.030481872497222173,0.02925658882488924
1.7889624832941877,0.0011462164816877704,0.03012574502153955,0.028956604210218024
1.832595714594046,0.001098273391586577,0.02971270249162397,0.02859246363220566
1.876228945893904,0.0010555287328508573,0.029243548599216934,0.02816690929170906
1.9198621771937625,0.0010166162133414592,0.02871919747415117,0.027682248936542884
1.9634954084936207,0.0009805557010528377,0.02814067247805227,0.027140505662978376
2.007128639793479,0.0009466352331159712,0.027509104930622003,0.026543536992843713
2.050761871093337,0.0009143294926055931,0.02682573280866004,0.025893116726202335
2.0943951023931953,0.0008832449805933935,0.02609189947126652,0.02519098959106126
2.1380283336930535,0.0008530829793941305,0.02530905248307677,0.02443890784409476
2.1816615649929116,0.0008236141613757056,0.024478742633317438,0.02363865618871422
2.2252947962927703,0.0007946608619553288,0.023602623285624118,0.022792069206429684
2.2689280275926285,0.0007660844656522855,0.022682450247683762,0.02190104409271843
2.3125612588924866,0.0007377762586855518,0.021720082430009995,0.02096755064615073
2.356194490192345,0.000709650669968513,0.020717483684361757,0.01999364000099387
2.399827721492203,0.0006816401818884831,0.01967672639905175,0.018981453413525497
2.443460952792061,0.0006536914222280533,0.018599997722320766,0.01793323247164815
2.4870941840919194,0.0006257620971445442,0.01748960975848879,0.016851332419401354
2.5307274153917776,0.0005978185213085554,0.016348015864095067,0.01573824097236034
2.574360646691636,0.0005698335623800661,0.0151778365007408,0.014596606267113132
2.6179938779914944,0.0005417848526406558,0.013981900430186118,0.01342927988049265
2.6616271092913526,0.0005136531348681023,0.012763311255279498,0.012239385057714033
2.705260340591211,0.0004854206010420612,0.011525557233607781,0.01103042822054488
2.748893571891069,0.0004570690420970495,0.01027269776857484,0.009806487345635849
2.792526803190927,0.0004285775308474635,0.009009691472399963,0.00857254239093555
2.8361600344907854,0.00039991915088479727,0.0077429972889372835,0.00733507975503479
2.8797932657906435,0.00037105581726619533,0.006481724888334789,0.00610324795472327
2.9234264970905017,0.00034192911385866125,0.0052399213901767275,0.004891153694040893
2.96705972839036,0.00031244206301263343,0.004041153990216328,0.0037224630859434417
3.0106929596902186,0.00028241726457594744,0.002926814364523536,0.0026387487546560696
3.0543261909900767,0.0002514788525823045,0.0019644946565729763,0.0017079862269390256
3.097959422289935,0.00021857303092387984,0.001231189493658727,0.0010082450021163694
3.141592653589793,0.0003426396521026396,0.0007645511710070552,0.00041505872586236283
3.1852258848896513,0.0001346214794218715,0.0005115492205434332,0.0003742353115331242
3.2288591161895095,0.00010363901993073693,0.0003167295666447448,0.00021101776631539317
3.2724923474893677,7.998537607921855e-05,0.00016121918947629293,7.963410587549002e-05
3.316125578789226,6.138161465959045e-05,4.3922399284603465e-05,-1.8686847668178797e-05
3.359758810089084,4.640768021137412e-05,-3.93290780437116e-10,-4.733622710638204e-05
3.4033920413889427,3.413296587550603e-05,-1.1918390569466547e-09,-3.4816817032073094e-05
3.447025272688801,2.392252145831672e-05,-1.953150327169715e-09,-2.4402925037810228e-05
3.490658503988659,1.532864200044875e-05,-2.6772592379607403e-09,-1.5637892099695686e-05
3.5342917352885173,8.026965005719167e-06,-3.3639692524153774e-09,-8.190868275085965e-06
3.5779249665883754,1.7771371169142849e-06,-4.012887615747806e-09,-1.8166927468683183e-06
3.6215581978882336,-3.603504998787969e-06,-4.6234517523801174e-09,3.598881547035589e-06
3.665191429188092,-9.283723803165348e-06,-5.194948558294944e-09,9.278528854607052e-06
3.70882466048795,-1.5503578302190586e-05,-5.7265275795061674e-09,1.549785177461108e-05
3.752457891787808,-2.1729511982543263e-05,-6.2172086922289854e-09,2.1723294773851035e-05
3.796091123087667,-2.7695903903732626e-05,-6.665884582595751e-09,2.7689238019150032e-05
3.839724354387525,-3.3239335089467565e-05,-7.071318033585375e-09,3.323226377143398e-05
3.883357585687383,-3.824390796880869e-05,-7.432133731035107e-09,3.823647583507766e-05
3.9269908169872414,-4.26184809873314e-05,-7.74680397917811e-09,4.261073418335222e-05
3.9706240482870996,-4.628557372969605e-05,-8.013627326119343e-09,4.627756010236993e-05
4.014257279586958,-4.91752196709e-05,-8.230698601829928e-09,4.9166988972298176e-05
4.057890510886816,-5.122112124810761e-05,-8.395868200483637e-09,5.121272537990713e-05
4.101523742186674,-5.235793613143601e-05,-8.506687496970622e-09,5.234942944393904e-05
4.145156973486532,-5.251914516863398e-05,-8.560335922896205e-09,5.2510584832711085e-05
4.1887902047863905,-5.1635280928515845e-05,-8.55352318948005e-09,5.1626727405326365e-05
4.232423436086249,-4.963257456923407e-05,-8.482357014216938e-09,4.962409221221985e-05
4.276056667386107,-4.643251648466362e-05,-8.34216173393437e-09,4.642417432292969e-05
4.319689898685965,-4.195381145205168e-05,-8.127225011292125e-09,4.194568422704039e-05
4.363323129985823,-3.612077913762139e-05,-7.830435817067043e-09,3.6112948701804326e-05
4.406956361285682,-2.8889626611248384e-05,-7.44275156426087e-09,2.8882183859684122e-05
4.4505895925855405,-2.0327577057029467e-05,-6.952383717085717e-09,2.032062467331238e-05
4.494222823885399,-1.0866799085371588e-05,-6.343490307307691e-09,1.086045559506428e-05
4.537856055185257,-6.639724119886464e-07,-5.593931772145946e-09,6.583784802165004e-07
4.581489286485115,1.5597730927538923e-05,-4.671035349497267e-09,-1.5914356581439198e-05
4.625122517784973,4.64356704430553e-05,-3.5223725366258458e-09,-4.736790622445303e-05
4.6687557490848315,0.00012540061271343198,-2.050397265883653e-09,-0.0001279106753649665
4.71238898038469,0.0005877993532461052,4.705783213425372e-19,-0.0005995553403110269
4.756022211684548,0.0006704536824289135,2.161839482209643e-06,-0.0006817009165952821
4.799655442984406,0.0007341955588653742,6.306960066847171e-06,-0.0007425725099758345
4.843288674284264,0.0007916948671967086,1.1809303479751027e-05,-0.0007957194610608918
4.886921905584122,0.0008459687073877605,1.8625275313829482e-05,-0.0008442628062216862
4.930555136883981,0.0008982782426519946,2.6897222337813433e-05,-0.000889346585167221
4.974188368183839,0.0009492657563700091,3.682283697319323e-05,-0.000931428234524216
5.017821599483697,0.0009992909023734328,4.855937445397489e-05,-0.0009707173459669266
5.061454830783555,0.0010485633993064674,6.218258270962535e-05,-0.0010073520845829715
5.105088062083413,0.0010972051140830247,7.770361512332996e-05,-0.001041445601241355
5.148721293383272,0.0011452826573853361,9.509501874114787e-05,-0.001073093291791895
5.192354524683131,0.0011928260046240788,0.00011430564054153261,-0.0011023768841750276
5.235987755982989,0.0012398398506317059,0.0001352683444088734,-0.0011293683032354666
5.279620987282847,0.0012863109066229244,0.00015790505856756078,-0.0011541320661878221
5.323254218582705,0.001332212798598918,0.00018213069193357618,-0.0011767263626373202
5.366887449882563,0.0013775094804293667,0.00020785629858357878,-0.0011972033714543753
5.410520681182422,0.0014221576906515133,0.0002349916731607847,-0.0012156091713037588
5.45415391248228,0.0014661087728427445,0.00026344757642606583,-0.0012319833718735336
5.497787143782138,0.0015093100600906697,0.0002931378162410359,-0.0012463584450514472
5.541420375081996,0.001551705953246897,0.0003239814381853893,-0.0012587586341264456
5.585053606381854,0.00159323877913066,0.0003559053473230653,-0.001269198207390208
5.6286868376817125,0.0016338494872973426,0.0003888478405772604,-0.001277678636466029
5.672320068981571,0.001673478226078218,0.00042276387283497454,-0.0012841839177648079
5.715953300281429,0.0017120648266800613,0.00045763362213290865,-0.001288672501080754
5.759586531581287,0.0017495492160340903,0.0004934775870334694,-0.0012910626133213025
5.803219762881145,0.0017858717734741585,0.0005303854548186148,-0.0012912037541250268
5.8468529941810035,0.0018209736423715423,0.0005685764519227311,-0.001288816663296242
5.890486225480862,0.001854797005024402,0.0006085391313853057,-0.0012833538137395845
5.93411945678072,0.0018872853270450946,0.000651395589665786,-0.0012736354439202104
5.977752688080578,0.0019183835759755718,0.0006999692060647872,-0.001256782041430296
6.021385919380437,0.0019480384177325717,0.0007620045404011946,-0.0012249946456860284
6.065019150680295,2.5714757183466932e-05,0.0008565979670133366,0.0008303689146862003
6.1086523819801535,4.185407443146063e-05,0.001013982952219502,0.000971291796299412
6.152285613280012,6.136658159982157e-05,0.0012721732388870036,0.0012095793256551857
6.19591884457987,8.486970587289073e-05,0.001691107221091403,0.0016045401211010545
6.239552075879728,0.00011437711945554957,0.0023394873388039783,0.0022228226769593178
