theta,z_plus,lambda_top,edge_margin
0.0,0.00206188728612366,0.004501643888036353,0.00239851885619022
0.04363323129985824,0.002079383386193999,0.005538805059056944,0.003417834005139065
0.08726646259971647,0.0020951388562951505,0.006617945473510451,0.004480903840089398
0.1308996938995747,0.002109123083795519,0.007717943925281016,0.005566638379809587
0.17453292519943295,0.0021213081609292622,0.008825366097355144,0.006661631773207296
0.2181661564992912,0.002131668922023341,0.009931203773284835,0.007756901472821027
0.2617993877991494,0.0021401829674773734,0.011029003445471215,0.008846016818644293
0.30543261909900765,0.0021468306738059917,0.012113832557179433,0.00992406526989732
0.3490658503988659,0.002151595188824218,0.013181702512361233,0.01098707541976053
0.39269908169872414,0.002154462410782869,0.014229238077706166,0.01203168641870764
0.4363323129985824,0.0021554209499257005,0.015253482226371119,0.013054952857446903
0.4799655442984406,0.0021544620705201537,0.016251777610010718,0.01405422629808016
0.5235987755982988,0.0021515796108784427,0.017221692753763035,0.015027081550667024
0.5672320068981571,0.002146769878193576,0.01816097515387892,0.01597126987812147
0.6108652381980153,0.002140031514107374,0.019067521017975785,0.016884688873586264
0.6544984694978736,0.0021313653257225406,0.019939355563829975,0.017765362931592983
0.6981317007977318,0.0021207740751505127,0.020774620167024832,0.018611430610371307
0.74176493209759,0.002108262218479754,0.021571564036105467,0.019421136573256118
0.7853981633974483,0.002093835582001924,0.0223285389273438,0.020192826633701838
0.8290313946973065,0.002077500959264588,0.023043995924017624,0.020924944945567743
0.8726646259971648,0.0020592656064446057,0.02371648362791034,0.02161603270933684
0.916297857297023,0.0020391366047424957,0.02434464731829101,0.022264727981453663
0.9599310885968813,0.002017120045524708,0.024927228769745506,0.022869766323310305
1.0035643198967394,0.001993219974396647,0.025463066511146305,0.023429982137261725
1.0471975511965976,0.001967437000250821,0.025951096369839187,0.02394431062958335
1.0908307824964558,0.0019397664276250776,0.026390352187817344,0.024411790431639765
1.1344640137963142,0.001910195692910841,0.026779966626620695,0.024831567019851637
1.1780972450961724,0.0018787007537451805,0.027119171999063163,0.02520289723024308
1.2217304763960306,0.0018452408508820059,0.0274073010813631,0.025525155413463452
1.2653637076958888,0.0018097506399472317,0.02764378787064265,0.025797842217896477
1.3089969389957472,0.0017721278747506494,0.0278281682612921,0.02602059782904644
1.3526301702956054,0.0017322131444360955,0.027960080620217598,0.02619322321289278
1.3962634015954636,0.0016897544384844299,0.028039266246088525,0.026315716718834405
1.4398966328953218,0.0016443402460254665,0.028065569701802198,0.026388342650856222
1.48352986419518,0.0015952603094697626,0.02803893901279554,0.026411773497136384
1.5271630954950384,0.0015411785507940226,0.027959425726793365,0.026387423604983463
1.5707963267948966,0.0014792867459748925,0.027827184833276217,0.026318312352381825
1.6144295580947547,0.0014044250537637692,0.02764247454354083,0.026209960988701785
1.658062789394613,0.0013209670750366164,0.02740565593486332,0.02605826951832597
1.7016960206944713,0.001245451217353992,0.027117192465113106,0.025846832223412036
1.7453292519943295,0.0011816318335688054,0.026777649367381903,0.025572384897141722
1.7889624832941877,0.001127320237466717,0.02638769293800121,0.025237826295785158
1.832595714594046,0.0010800558459774276,0.025948089736000143,0.024846432773103166
1.876228945893904,0.001037958290625391,0.02545970571798121,0.02440098826154331
1.9198621771937625,0.0009996748099673704,0.024923505340080886,0.023903837033914167
1.9634954084936207,0.00096423434462048,0.024340550668875895,0.023357031637363006
2.007128639793479,0.0009309310563159098,0.023712000556856898,0.02276245087941467
2.050761871093337,0.0008992437740031254,0.023039109956982627,0.02212188130749944
2.0943951023931953,0.0008687817840216047,0.022323229477175348,0.021437072057473312
2.1380283336930535,0.0008392481942904931,0.021565805312943165,0.02070977215476686
2.1816615649929116,0.0008104148094987051,0.02076837975002932,0.01994175664434064
2.2252947962927703,0.0007821045856196853,0.019932592507552915,0.019134845830220838
2.2689280275926285,0.0007541791427268494,0.019060183308995268,0.018290920583413882
2.3125612588924866,0.0007265297081347282,0.01815299624546396,0.017411935943166538
2.356194490192345,0.0006990704233344099,0.017212986769166112,0.016499934937365013
2.399827721492203,0.0006717333034897206,0.016242232586321972,0.015557064616762458
2.443460952792061,0.0006444643655517134,0.015242950414336615,0.014585596761473868
2.4870941840919194,0.0006172205878388554,0.014217521717422337,0.013587956717826704
2.5307274153917776,0.0005899674588632564,0.01316853248444931,0.012566765676408789
2.574360646691636,0.0005626769332726291,0.0120988355139613,0.011524905042023218
2.6179938779914944,0.0005353256475006163,0.011011649784148331,0.010465617623697703
2.6616271092913526,0.0005078932609496842,0.009910722815040796,0.009392671688872117
2.705260340591211,0.00048036077862471927,0.008800603565878383,0.00831063557168117
2.748893571891069,0.0004527086685539532,0.007687115773738186,0.0072253529318131535
2.792526803190927,0.00042491448739514435,0.006578205436859627,0.00614479265971658
2.8361600344907854,0.00039694951100116685,0.005485496836228258,0.005080608335007068
2.8797932657906435,0.0003687733846789402,0.004427153033116429,0.004051004180743911
2.9234264970905017,0.0003403246527451502,0.0034327767438730172,0.003085645598072964
2.96705972839036,0.0003115019303679302,0.0025495046598584207,0.002231772690883132
3.0106929596902186,0.0002821207389256401,0.0018391178932949807,0.0015513547395908278
3.0543261909900767,0.0002517920294227052,0.0013327790883573176,0.0010759512183461583
3.097959422289935,0.00021942983787699504,0.0009709071827453055,0.0007470887481107705
3.141592653589793,0.0003447021042158434,0.0006836126891109853,0.00033201654281082507
3.1852258848896513,0.00013620635189223398,0.0004491481579199703,0.00031021767898989166
3.2288591161895095,0.00010554499854556778,0.0002661889712758529,0.00015853307275937378
3.2724923474893677,8.216456858337684e-05,0.00013141463291175453,4.7606772956710144e-05
3.316125578789226,6.379296424076863e-05,3.570094597920087e-05,-2.9367877546383127e-05
3.359758810089084,4.901716114748255e-05,-2.6945447012470755e-10,-4.9997773824902325e-05
3.4033920413889427,3.691260052564409e-05,-8.233077356362595e-10,-3.7651675843892605e-05
3.447025272688801,2.684925926994239e-05,-1.360171883144534e-09,-2.738760462722438e-05
3.490658503988659,1.8383377071859597e-05,-1.8793854000248384e-09,-1.8752923998696813e-05
3.5342917352885173,1.1193739872648997e-05,-2.3801895374588266e-09,-1.1419994859639436e-05
3.5779249665883754,5.0425151153884115e-06,-2.8617412891911826e-09,-5.146227158985371e-06
3.6215581978882336,-2.4971584862198224e-07,-3.323121675962005e-09,2.4639272694602025e-07
3.665191429188092,-4.921979665058873e-06,-3.7633401349006215e-09,4.9182163249239725e-06
3.70882466048795,-1.0098938907386093e-05,-4.181335432695345e-09,1.0094757571953398e-05
3.752457891787808,-1.5526770046647514e-05,-4.575973227043449e-09,1.552219407342047e-05
3.796091123087667,-2.0839295882687686e-05,-4.946040151400919e-09,2.0834349842536285e-05
3.839724354387525,-2.583167454015405e-05,-5.2902340512974864e-09,2.5826384306102752e-05
3.883357585687383,-3.0368553946081582e-05,-5.607149728610307e-09,3.0362946796352973e-05
3.9269908169872414,-3.434929527763444e-05,-5.895259213946165e-09,3.4343400018420494e-05
3.9706240482870996,-3.769216539322336e-05,-6.152885150157205e-09,3.76860125080732e-05
4.014257279586958,-4.032612680091595e-05,-6.378165267534257e-09,4.031974863564842e-05
4.057890510886816,-4.218607129643509e-05,-6.569005066241476e-09,4.217950229136885e-05
4.101523742186674,-4.320976939323184e-05,-6.723014575307983e-09,4.320304637865654e-05
4.145156973486532,-4.3335779666916163e-05,-6.837423163167261e-09,4.3328942243752995e-05
4.1887902047863905,-4.250205470825853e-05,-6.9089634887852945e-09,4.249514574476974e-05
4.232423436086249,-4.064537626682164e-05,-6.9337111278891165e-09,4.063844255569375e-05
4.276056667386107,-3.7702334532706426e-05,-6.906859033742007e-09,3.7695427673672685e-05
4.319689898685965,-3.361381435953521e-05,-6.82239367912203e-09,3.3606991965856085e-05
4.363323129985823,-2.833810025722589e-05,-6.672618420156515e-09,2.8331427638805735e-05
4.406956361285682,-2.1886539801141435e-05,-6.447431159715384e-09,2.188009236998172e-05
4.4505895925855405,-1.4423421907830796e-05,-6.133190378397085e-09,1.4417288717452399e-05
4.494222823885399,-6.560995212014967e-06,-5.710855973263002e-09,6.555284356041704e-06
4.537856055185257,3.3261852424223984e-06,-5.1527670943166696e-09,-3.397861714365163e-06
4.581489286485115,1.9570447485697234e-05,-4.416619740907276e-09,-1.9966273055152086e-05
4.625122517784973,5.035594430114092e-05,-3.432853402287838e-09,-5.136649604056603e-05
4.6687557490848315,0.00012909920431564562,-2.072183595137925e-09,-0.00013168326058555366
4.71238898038469,0.0005983192441805691,3.6431701057422706e-19,-0.0006102856290641802
4.756022211684548,0.000680598335077975,1.651003542414428e-06,-0.00069255929823712
4.799655442984406,0.0007433565489938752,4.522001206473488e-06,-0.0007537016787672793
4.843288674284264,0.0007997678042716582,8.482506326389459e-06,-0.000807280654030702
4.886921905584122,0.0008528989509660382,1.4253441693199665e-05,-0.0008557034882921593
4.930555136883981,0.000904026391843689,2.160139201057019e-05,-0.0009005055276699926
4.974188368183839,0.0009537998516484013,3.0351854261320033e-05,-0.0009425239944200493
5.017821599483697,0.001002583886811077,4.044622582980491e-05,-0.0009821893387174938
5.061454830783555,0.0010505921060035557,5.187309383199177e-05,-0.0010197308542916352
5.105088062083413,0.0010979498046522734,6.465522236104087e-05,-0.001055253578384278
5.148721293383272,0.0011447267897152923,7.88363354407655e-05,-0.0010887849900688327
5.192354524683131,0.001190956105693122,9.446805850817391e-05,-0.0011203071692988105
5.235987755982989,0.001236645440589965,0.00011160043747321327,-0.001149777911928551
5.279620987282847,0.0012817844487071448,0.00013027807666383872,-0.001177142061017449
5.323254218582705,0.0013263496619687204,0.00015054188882988477,-0.00120233476637821
5.366887449882563,0.0013703079089760987,0.00017243517221732303,-0.0012252788949382977
5.410520681182422,0.0014136187738515305,0.0001960126177739817,-0.0012458785315545794
5.45415391248228,0.0014562364163401053,0.00022135148387609403,-0.0012640096607908133
5.497787143782138,0.0014981109545964962,0.00024856502913509876,-0.0012795081445533274
5.541420375081996,0.0015391895408687882,0.00027781912791888344,-0.0012921542037672804
5.585053606381854,0.001579417216564441,0.00030935385467587717,-0.0013016517062198526
5.6286868376817125,0.0016187376055140491,0.00034351293958786186,-0.0013075994180364683
5.672320068981571,0.001657093486270088,0.00038078576117972626,-0.0013094495948157636
5.715953300281429,0.0016944272723178949,0.00042186962209278,-0.0013064461956714727
5.759586531581287,0.0017306814209505383,0.0004677656879849539,-0.0012975293613845952
5.803219762881145,0.0017657987859328625,0.0005199325375342711,-0.0012811822241172487
5.8468529941810035,0.0017997229251163606,0.0005805414693301087,-0.0012551759142885792
5.890486225480862,0.0018323983713298415,0.0006529168466137631,-0.0012161294921426754
5.93411945678072,0.0018637708728108647,0.0007423205388184613,-0.0011587257514486205
5.977752688080578,0.0018937876079263415,0.0008573792494412131,-0.0010742841106436553
6.021385919380437,1.5651666933331837e-05,0.0010126583647907601,0.0009966936645187617
6.065019150680295,2.8634985990621798e-05,0.0012328741412403518,0.0012036664555299175
6.1086523819801535,4.4683741772425546e-05,0.0015573842384998475,0.0015118068218919734
6.152285613280012,6.393340085791105e-05,0.0020360367557548313,0.001970824686879762
6.19591884457987,8.70424175432925e-05,0.0027018017400345954,0.002613018474140437
6.239552075879728,0.00011604296272415414,0.003539957214212892,0.0034215933922342547
