theta,z_plus,lambda_top,edge_margin
0.0,0.002061498916947405,0.003077063442408762,0.0009743345471224093
0.04363323129985824,0.002079509394028844,0.004137073866523906,0.0020159742846144854
0.08726646259971647,0.0020957534338791467,0.00531635295142009,0.0031786844488633607
0.1308996938995747,0.0021101995135569354,0.006559306315227369,0.004406902811399296
0.17453292519943295,0.002122818886976266,0.007833253057548669,0.005667977792832878
0.2181661564992912,0.002133585624063587,0.009119176658256374,0.006942919321711516
0.2617993877991494,0.0021424766367000537,0.010405270816351321,0.008219944646917266
0.30543261909900765,0.0021494716907661175,0.011683549614885703,0.009491088490304262
0.3490658503988659,0.0021545534033806037,0.012948140046205984,0.010750495574757768
0.39269908169872414,0.002157707224158094,0.014194402305584681,0.011993540936943424
0.4363323129985824,0.0021589213989794314,0.015418458187863086,0.013216358360904066
0.4799655442984406,0.002158186914357843,0.016616927581808272,0.014415576929163272
0.5235987755982988,0.0021554974199577076,0.017786775593221796,0.015588168224864933
0.5672320068981571,0.0021508491261430143,0.018925220974974975,0.0167313548663091
0.6108652381980153,0.0021442406725408958,0.020029679866605317,0.017842554380613603
0.6544984694978736,0.0021356729624215755,0.02109773058720498,0.018919344165534972
0.6981317007977318,0.002125148956103742,0.022127091370436808,0.01995943943521099
0.74176493209759,0.002112673414425469,0.023115606268434313,0.020960679385720334
0.7853981633974483,0.0020982525803262928,0.024061236328003992,0.021921018696071173
0.8290313946973065,0.002081893782391413,0.024962054231543573,0.02283852257350433
0.8726646259971648,0.0020636049382405457,0.025816241245532015,0.02371136420852666
0.916297857297023,0.0020433939270048606,0.026622085718333806,0.024537823912788848
0.9599310885968813,0.002021267787392772,0.027377982619661664,0.025316289476521037
1.0035643198967394,0.001997231678653118,0.028082433775013668,0.026045257462787488
1.0471975511965976,0.0019712875121569292,0.02873404855394529,0.026723335291545223
1.0908307824964558,0.0019434321144982344,0.02933154484157207,0.02734924408478387
1.1344640137963142,0.0019136547067010582,0.029873750170692367,0.02792182236985729
1.1780972450961724,0.0018819333554802315,0.030359602925139312,0.028440030902549474
1.2217304763960306,0.001848229827111704,0.03078815354834815,0.028902959124694212
1.2653637076958888,0.0018124818614368618,0.03115856570785129,0.029309834209185693
1.3089969389957472,0.0017745910857559313,0.03147011737857913,0.02966003447110808
1.3526301702956054,0.0017344031481977679,0.03172220181685531,0.029953110605693587
1.3962634015954636,0.00169167301569503,0.031914328403775324,0.030188821927766393
1.4398966328953218,0.0016459995655214422,0.0320461233419069,0.03036720378507503
1.48352986419518,0.0015966897907926786,0.03211733019340278,0.030488706606794248
1.5271630954950384,0.0015424412069766319,0.032127810251010205,0.030554520219894042
1.5707963267948966,0.001480526936620933,0.03207754273633,0.030567405260976645
1.6144295580947547,0.001405972313297088,0.03196662482221873,0.0305325330626557
1.658062789394613,0.0013230244690291858,0.031795271478584006,0.030445786520174236
1.7016960206944713,0.001247874841575903,0.03156381514313617,0.03029098280472875
1.7453292519943295,0.0011842796229673221,0.031272705221053756,0.03006474000562709
1.7889624832941877,0.0011300895216652387,0.030922507420135963,0.02976981610803742
1.832595714594046,0.0010828699019708422,0.03051390293101154,0.02940937563100128
1.876228945893904,0.0010407573754217178,0.0300476874655523,0.02898611494262215
1.9198621771937625,0.0010024108223182786,0.029524770171063426,0.028502311132298782
1.9634954084936207,0.0009668675261887484,0.028946172443456,0.027959967566743477
2.007128639793479,0.0009334278712304458,0.028313026669955284,0.02736093024130023
2.050761871093337,0.0009015754997136254,0.027626574941686632,0.026706967931978735
2.0943951023931953,0.0008709235481526677,0.026888167789772398,0.025999825770656678
2.1380283336930535,0.0008411783002936866,0.02609926301692774,0.02524126115062818
2.1816615649929116,0.000812114254542914,0.025261424722324448,0.024433068182690677
2.2252947962927703,0.0007835567095702692,0.02437632265429613,0.023577094810534455
2.2689280275926285,0.000755369368485989,0.023445732078890634,0.022675255323034924
2.3125612588924866,0.0007274453470082179,0.02247153443119608,0.021729540177247698
2.356194490192345,0.0006997005277454798,0.02145571913509102,0.02074202459679063
2.399827721492203,0.000672068555168222,0.020400387159173514,0.019714877232901926
2.443460952792061,0.0006444969914188717,0.019307757161868673,0.018650370230621424
2.4870941840919194,0.0006169442989000918,0.018180175535785263,0.01755089235090717
2.5307274153917776,0.000589377410009638,0.01702013241215449,0.01641896745394466
2.574360646691636,0.0005617697043729843,0.015830286953202176,0.015257281854741732
2.6179938779914944,0.0005340992489383912,0.0146135074629265,0.014068726229009341
2.6616271092913526,0.0005063471703253076,0.01337293580210118,0.012856461688369366
2.705260340591211,0.00047849602048132776,0.012112092951218484,0.011624027010327529
2.748893571891069,0.00045052795705090266,0.010835056780377852,0.01037551826418593
2.792526803190927,0.0004224224654580906,0.00954677164796416,0.009115900733196907
2.8361600344907854,0.0003941531440345743,0.00825360903063553,0.007851572823720265
2.8797932657906435,0.0003656826146465717,0.006964426076826595,0.006591429809887092
2.9234264970905017,0.0003369535196776972,0.005692640480126842,0.005348947890055591
2.96705972839036,0.00030787060877685506,0.0044603467191337565,0.004146318698181365
3.0106929596902186,0.00027825960244311806,0.003305857169636121,0.0030220323751441406
3.0543261909900767,0.0002477511788958164,0.0022924024016210964,0.0020396961991473637
3.097959422289935,0.00021530969782871583,0.0014964859756498158,0.0012768700838645256
3.141592653589793,0.00033752988103595165,0.0009463019555340161,0.0006020214768773454
3.1852258848896513,0.00013292073902601028,0.0005855146147912229,0.0004499354609846924
3.2288591161895095,0.00010246207473160323,0.0003402049526240671,0.00023569363639783182
3.2724923474893677,7.9139829195553e-05,0.00016690645458814467,8.61838288086806e-05
3.316125578789226,6.075490607100765e-05,4.446139246572683e-05,-1.750861172670098e-05
3.359758810089084,4.593029798734804e-05,-3.7202069429450424e-10,-4.6849275967789295e-05
3.4033920413889427,3.3760109780113184e-05,-1.129707484980361e-09,-3.443644168320043e-05
3.447025272688801,2.362430600667136e-05,-1.8551913055662895e-09,-2.4098647318110354e-05
3.490658503988659,1.5084560131517334e-05,-2.548336552539768e-09,-1.5388799670700218e-05
3.5342917352885173,7.822611406026667e-06,-3.208785136381588e-09,-7.98227241928358e-06
3.5779249665883754,1.60219221521067e-06,-3.835994023737639e-09,-1.638072053538621e-06
3.6215581978882336,-3.7588239095278143e-06,-4.429262476676597e-09,3.7543946470511377e-06
3.665191429188092,-9.441102987109793e-06,-4.987751202589922e-09,9.436115235907204e-06
3.70882466048795,-1.5630469177697796e-05,-5.510494852029425e-09,1.5624958682845767e-05
3.752457891787808,-2.1813677541704012e-05,-5.9964087363147815e-09,2.18076811329677e-05
3.796091123087667,-2.773333620138888e-05,-6.444290204699413e-09,2.772689191118418e-05
3.839724354387525,-3.323029990443026e-05,-6.852814752047563e-09,3.322344708967821e-05
3.883357585687383,-3.819127284346235e-05,-7.220526580118987e-09,3.818405231688223e-05
3.9269908169872414,-4.252689006117779e-05,-7.54582296521743e-09,4.251934423821257e-05
3.9706240482870996,-4.616099505171485e-05,-7.82693134742594e-09,4.6153168120367423e-05
4.014257279586958,-4.902467632287258e-05,-8.061877496242989e-09,4.901661444537634e-05
4.057890510886816,-5.10525201199487e-05,-8.248442346059345e-09,5.1044271677602643e-05
4.101523742186674,-5.217994946618312e-05,-8.384104005931675e-09,5.217156536217719e-05
4.145156973486532,-5.2341116754111064e-05,-8.465959851752487e-09,5.233265079425931e-05
4.1887902047863905,-5.146713297011987e-05,-8.490621159175308e-09,5.145864234896069e-05
4.232423436086249,-4.948468517658686e-05,-8.454068899758324e-09,4.94762311076871e-05
4.276056667386107,-4.631551697048559e-05,-8.351453058080965e-09,4.630716551742751e-05
4.319689898685965,-4.1878202271740306e-05,-8.176807247551206e-09,4.1870025464492755e-05
4.363323129985823,-3.609614211040469e-05,-7.922631694529945e-09,3.608821947871016e-05
4.406956361285682,-2.892290063998229e-05,-7.579262843317919e-09,2.8915321377138972e-05
4.4505895925855405,-2.0418985049989683e-05,-7.133878850905913e-09,2.0411851171138778e-05
4.494222823885399,-1.0999142523936398e-05,-6.5688425636616615e-09,1.0992573681372737e-05
4.537856055185257,-8.134599765289503e-07,-5.85873468494347e-09,8.076012418440068e-07
4.581489286485115,1.5407331362533576e-05,-4.964490116756369e-09,-1.5720442479901005e-05
4.625122517784973,4.613858720129143e-05,-3.820001896690244e-09,-4.706517894721395e-05
4.6687557490848315,0.0001246543121386843,-2.2932844511285e-09,-0.0001271496916659091
4.71238898038469,0.000577083918923914,4.583580685967471e-19,-0.0005886255973023919
4.756022211684548,0.0006583755657923211,1.945679231110268e-06,-0.0006695973978770572
4.799655442984406,0.0007211479854050272,5.8525017583677174e-06,-0.0007297184433547601
4.843288674284264,0.0007777968657149189,1.1213697557931759e-05,-0.0007821391054712855
4.886921905584122,0.0008312818046547406,1.80497771394324e-05,-0.0008298576636084031
4.930555136883981,0.0008828405963535221,2.6393649882317827e-05,-0.0008741037583982746
4.974188368183839,0.0009331036687678681,3.623097738964843e-05,-0.000915534764753577
5.017821599483697,0.0009824239543183692,4.75033972093405e-05,-0.000954569036195396
5.061454830783555,0.0010310071326215399,6.0116816510788423e-05,-0.000991510458763182
5.105088062083413,0.0010789725867898065,7.396597669917057e-05,-0.0010265860618264321
5.148721293383272,0.0011263854145490615,8.895037159875252e-05,-0.0010599627512412901
5.192354524683131,0.0011732747185823414,0.00010497924020981219,-0.001091760972744176
5.235987755982989,0.0012196447612186844,0.00012197215447280594,-0.001122065501970252
5.279620987282847,0.001265482133753771,0.00013985851991031172,-0.0011509332565185345
5.323254218582705,0.0013107605697226603,0.00015857703172262623,-0.0011783987493944872
5.366887449882563,0.0013554442990412854,0.00017807538061934857,-0.0012044778044027625
5.410520681182422,0.0013994904626576884,0.0001983103336875786,-0.0012291699382232636
5.45415391248228,0.0014428509019142111,0.00021924832776924817,-0.0012524595921832471
5.497787143782138,0.0014854735196131305,0.0002408668122974639,-0.0012743161777079293
5.541420375081996,0.0015273033401953875,0.0002631567916422162,-0.001294692615357079
5.585053606381854,0.0015682833536899308,0.0002861274647479099,-0.0013135215560158195
5.6286868376817125,0.0016083552010246647,0.00030981484778502984,-0.0013307074572601282
5.672320068981571,0.0016474597406952451,0.00033429856081016384,-0.001346110374698986
5.715953300281429,0.0016855375250788079,0.0003597364721351649,-0.001359511803445219
5.759586531581287,0.0017225292067218258,0.0003864397441137402,-0.0013705400467425221
5.803219762881145,0.00175837588941951,0.00041503416357133383,-0.0013785092436365664
5.8468529941810035,0.0017930194350203258,0.0004467549129129221,-0.0013821249108078102
5.890486225480862,0.0018264027341090739,0.0004837827007651328,-0.0013791480880261224
5.93411945678072,0.001858469946702752,0.0005294570124259801,-0.0013661823332108268
5.977752688080578,0.001889166717606707,0.0005887284900133374,-0.0013382215619455037
6.021385919380437,0.0019184403699696135,0.000669082751096809,-0.0012877264262721967
6.065019150680295,2.5162219917180953e-05,0.0007820701198836512,0.0007564046555681267
6.1086523819801535,4.106827505601492e-05,0.0009470304892516275,0.0009051408486944922
6.152285613280012,6.0309959890592584e-05,0.0011987401001550256,0.001137223941066621
6.19591884457987,8.349340100747023e-05,0.001596409978141536,0.0015112467091139164
6.239552075879728,0.00011260256325741993,0.002213027067260855,0.0020981724527382867
