theta,z_plus,lambda_top,edge_margin
0.0,0.0020126705705419685,0.0006804922828817126,-0.0013724316990710954
0.03490658503988659,0.002027150452418723,0.0009044444293826335,-0.0011632490320844639
0.06981317007977318,0.0020407311947363486,0.001646457923654622,-0.0004350878949764534
0.10471975511965978,0.0020533960306142428,0.0025792642695338106,0.00048480031830728295
0.13962634015954636,0.002065129094087399,0.003563272462654867,0.0014568407866857196
0.17453292519943295,0.0020759154361887403,0.004563247004544101,0.0024458132596315856
0.20943951023931956,0.0020857410383651976,0.0055671449553700205,0.003439689096237519
0.24434609527920614,0.002094592823130199,0.006569405628818945,0.004432920949226142
0.2792526803190927,0.0021024586618292374,0.007566759707686254,0.005422251872620432
0.3141592653589793,0.002109327379365826,0.008556904940414304,0.006405391013461162
0.3490658503988659,0.0021151887557012044,0.009538005892640731,0.007380513361825502
0.3839724354387525,0.002120033523901316,0.010508478294501085,0.008346044100121743
0.4188790204786391,0.00212385336445706,0.01146688641032885,0.009300555978582647
0.4537856055185257,0.0021266408955464776,0.012411890409163441,0.010242716695706033
0.4886921905584123,0.002128389658837575,0.01334221782671629,0.011171260374701963
0.5235987755982988,0.002129094100344371,0.014256647463418228,0.01208497148106697
0.5585053606381855,0.002128749545741761,0.015154000075490701,0.012982675538834105
0.5934119456780721,0.002127352169410808,0.016033132954685066,0.013863233741886041
0.6283185307179586,0.0021248989563168856,0.016892936822600083,0.01472553988715686
0.6632251157578453,0.002121387655607749,0.017732334147786504,0.0155685187390666
0.6981317007977318,0.002116816724542103,0.01855027836055092,0.016391125301517973
0.7330382858376184,0.0021111852610011654,0.019345753645619666,0.017192344679398477
0.767944870877505,0.0021044929223676474,0.020117775111869768,0.017971192331054767
0.8028514559173916,0.0020967398279386124,0.02086538920959005,0.018726714585092667
0.8377580409572782,0.0020879264412142326,0.02158767430960292,0.019457989339564403
0.8726646259971648,0.0020780534272917942,0.022283741386274522,0.020164126890436892
0.9075712110370514,0.0020671214790741682,0.022952734764334265,0.020844270855678613
0.9424777960769379,0.0020551311038968854,0.023593832901227817,0.021497599175252992
0.9773843811168246,0.002042082359220033,0.024206249184667385,0.022123325178262952
1.0122909661567112,0.002027974521807425,0.02478923273047818,0.022720698718234605
1.0471975511965976,0.002012805668676722,0.025342069169626884,0.023289007387576628
1.0821041362364843,0.0019965721390055187,0.025864081415997664,0.023827577834212035
1.117010721276371,0.0019792678323957685,0.026354630408408117,0.024335777219364432
1.1519173063162575,0.001960883277504736,0.026813115821765703,0.024813014878710873
1.1868238913561442,0.0019414043709142454,0.02723897674330756,0.02525874428497503
1.2217304763960306,0.0019208106299088412,0.027631692310654703,0.025672465468147686
1.2566370614359172,0.0018990727069183309,0.027990782309012523,0.026053728147955826
1.2915436464758039,0.001876148742712945,0.028315807725319626,0.026402136007752423
1.3264502315156905,0.0018519788164957464,0.028606371257518595,0.026717352864692935
1.361356816555577,0.001826476119051355,0.028862117777423535,0.026999112135991155
1.3962634015954636,0.0017995121303551434,0.029082734745906003,0.027247232372943755
1.4311699866353502,0.0017708899559162627,0.02926795257933021,0.02746164482429562
1.4660765716752369,0.0017402918243771904,0.02941754496634652,0.027642447305481786
1.5009831567151235,0.001707161978556341,0.029531329134308795,0.02779002391618133
1.53588974175501,0.0016703925333712002,0.029609166064721484,0.02790536568068286
1.5707963267948966,0.0016271837249729165,0.02965096065724967,0.027991233257777293
1.6057029118347832,0.0015668295241588962,0.02965666184194403,0.028058495727301954
1.6406094968746698,0.0014774600362714504,0.029626262639444765,0.028119253402447884
1.6755160819145565,0.00139098052752357,0.029559800169037344,0.0281410000309633
1.710422666954443,0.001318108064634917,0.029457355604537452,0.02811288537860984
1.7453292519943295,0.0012569559988469849,0.029319054078089463,0.02803695895926554
1.7802358370342162,0.0012046905615919262,0.02914506453206794,0.027916280159244175
1.8151424220741028,0.001159070617893834,0.028935599519382207,0.027753347489130498
1.8500490071139892,0.0011184641167312733,0.02869091495259797,0.02755008155353207
1.8849555921538759,0.0010816904113148257,0.028411309802412577,0.027307985582871456
1.9198621771937625,0.0010478851568224317,0.028097125746152307,0.02702828288619343
1.9547687622336491,0.00101640504870113,0.027748746767106668,0.026712013617431515
1.9896753472735358,0.0009867632138470736,0.02736659870567952,0.026360100227555507
2.0245819323134224,0.0009585853940070819,0.026951148763527166,0.025973391661639943
2.059488517353309,0.0009315798569300024,0.026502904962076586,0.025552693508007984
2.0943951023931953,0.0009055163887381953,0.026022415557085416,0.025098788840572456
2.129301687433082,0.0008802113673280771,0.025510268411233016,0.024612452816558376
2.1642082724729685,0.0008555169724941446,0.024967090327141533,0.024094463015197506
2.199114857512855,0.0008313132573699692,0.024393546343746315,0.023545606821228946
2.234021442552742,0.0008075022316152887,0.023790338999607127,0.022966686723359532
2.2689280275926285,0.0007840033811121412,0.023158207567637083,0.022358524118902698
2.303834612632515,0.0007607502282583289,0.02249792726690778,0.021721962034084285
2.3387411976724017,0.0007376876559685321,0.021810308458793948,0.021057867049706046
2.3736477827122884,0.0007147697986717462,0.021096195836932154,0.02036713064228697
2.4085543677521746,0.0006919583583455049,0.020356467623564564,0.01965067009805215
2.443460952792061,0.0006692212414456942,0.019592034789242624,0.018909429122968016
2.478367537831948,0.0006465314389119851,0.01880384031923381,0.018144378251543584
2.5132741228718345,0.0006238660897552454,0.01799285855934369,0.01735651514779334
2.548180707911721,0.000601205681308149,0.01716009468790923,0.016546864892974918
2.5830872929516078,0.0005785333474267267,0.016306584382190376,0.015716480367815113
2.6179938779914944,0.0005558342305071805,0.01543339378093991,0.014866442865822586
2.652900463031381,0.0005330948742960571,0.014541619898622028,0.01399786312684005
2.6878070480712677,0.0005103026116466966,0.013632391734973711,0.01311188307109408
2.722713633111154,0.00048744490321150913,0.012706872472890946,0.012209678671615206
2.7576202181510405,0.00046450856657751226,0.0117662634187552,0.011292464680846137
2.792526803190927,0.00044147880454078217,0.010811810813563517,0.01036150243293192
2.827433388230814,0.00041833788378005876,0.009844817542341169,0.00941811290088551
2.8623399732707004,0.00039506320487230144,0.008866663560798575,0.008463699091828827
2.897246558310587,0.00037162428172512243,0.007878842641443541,0.0074997858740839165
2.9321531433504737,0.0003479776663136425,0.006883031601177789,0.006528094381537874
2.9670597283903604,0.0003240577139965096,0.0058812292161688085,0.005550690347892369
3.001966313430247,0.00029975804972150823,0.0048760593031987026,0.004570306092482764
3.036872898470133,0.0002748890998862531,0.003871509386422748,0.0035911225045387697
3.07177948351002,0.0002490592248637745,0.002875017351273046,0.002620976941911996
3.1066860685499065,0.00022119662111743296,0.00190462670425096,0.0016790061507111784
3.141592653589793,0.0003581880037568685,0.0010187386299798382,0.0006533868661478323
3.1764992386296798,0.0001741054197802461,0.0003986056287604815,0.00022101810058463049
3.2114058236695664,0.00015353672024881522,0.00014975068619010656,-6.8567684636849555e-06
3.246312408709453,0.00013484219413913463,6.550424053411266e-05,-7.203479748780466e-05
3.2812189937493397,0.00011780746225431869,2.5927694142542082e-05,-9.423591735686298e-05
3.3161255787892263,0.00010225048400037639,5.214020775826141e-06,-9.908147290455778e-05
3.351032163829113,8.801583620053948e-05,-4.387387380836651e-09,-8.97805403119311e-05
3.385938748868999,7.497017982674128e-05,-1.2929716057182745e-08,-7.648251313933327e-05
3.420845333908886,6.299863943482084e-05,-2.0574890284485305e-08,-6.427918711380175e-05
3.4557519189487724,5.200189116798849e-05,-2.7820211991399375e-08,-5.306974920333966e-05
3.490658503988659,4.189380639608248e-05,-3.478785543171657e-08,-4.2766470379435845e-05
3.5255650890285457,3.259953540988709e-05,-4.152238283447625e-08,-3.3293048500919306e-05
3.5604716740684323,2.4053943175443547e-05,-4.803523798114396e-08,-2.458305727693356e-05
3.595378259108319,1.620032978443469e-05,-5.431838027888913e-08,-1.657865476040227e-05
3.6302848441482056,8.989383877377334e-06,-6.035868864091891e-08,-9.2295302435658e-06
3.6651914291880923,2.3783293607916196e-06,-6.615710009685727e-08,-2.492053048104309e-06
3.7000980142279785,-3.6697648032323372e-06,-7.173199041249736e-08,3.59803281281984e-06
3.735004599267865,-9.186534337485615e-06,-7.710535808185228e-08,9.109428979403763e-06
3.7699111843077517,-1.4198745164399093e-05,-8.229352985545523e-08,1.4116451634543638e-05
3.8048177693476384,-1.8728605372518625e-05,-8.730639716981553e-08,1.8641298975348808e-05
3.839724354387525,-2.2793969121977207e-05,-9.214925292679321e-08,2.2701819869050415e-05
3.8746309394274117,-2.6408432756579248e-05,-9.682443879505434e-08,2.6311608317784193e-05
3.9095375244672983,-2.961907704210802e-05,-1.0133242030782731e-07,2.9517744621800192e-05
3.944444109507185,-3.245186616940419e-05,-1.056724486907991e-07,3.234619372071339e-05
3.9793506945470716,-3.486612890852582e-05,-1.0984297340351123e-07,3.475628593512231e-05
4.014257279586958,-3.6825195780673615e-05,-1.1384190825048573e-07,3.671135387242313e-05
4.049163864626845,-3.829523664552109e-05,-1.1766680979764006e-07,3.817756983572345e-05
4.084070449666731,-3.924424764998463e-05,-1.2131500142826372e-07,3.912293264855637e-05
4.118977034706618,-3.96413627334813e-05,-1.2478366237507819e-07,3.9516579071106223e-05
4.153883619746504,-3.945642385412063e-05,-1.2806989331098525e-07,3.9328353960809644e-05
4.1887902047863905,-3.865982286427379e-05,-1.311707656590799e-07,3.8528652098614704e-05
4.223696789826278,-3.7222720301554646e-05,-1.3408335918838458e-07,3.708863694236626e-05
4.258603374866164,-3.511739822440978e-05,-1.3680479088046663e-07,3.4980593433529314e-05
4.293509959906051,-3.220793665516857e-05,-1.3933223705308128e-07,3.206860441811549e-05
4.328416544945937,-2.8282102598699564e-05,-1.416629500772256e-07,2.814043964862234e-05
4.363323129985824,-2.3115221246266948e-05,-1.4379427057227303e-07,2.2971426975694676e-05
4.39822971502571,-1.6388986671450004e-05,-1.4572363564971293e-07,1.624326303580029e-05
4.4331363000655974,-7.639406208123883e-06,-1.4744858352856977e-07,7.4919576245953126e-06
4.468042885105484,3.834707389829405e-06,-1.4896675464467357e-07,-4.060368292270667e-06
4.50294947014537,1.9142575051207164e-05,-1.5027588919511373e-07,-1.967570244142642e-05
4.537856055185257,4.014535529692964e-05,-1.5137382087366935e-07,-4.1099636223741904e-05
4.572762640225143,7.021913413425142e-05,-1.52258466350928e-07,-7.177577528328737e-05
4.60766922526503,0.00011618458861784015,-1.529278098074956e-07,-0.00011866120820000445
4.642575810304916,0.00019419626055762834,-1.5337988151040713e-07,-0.0001982335656502913
4.6774823953448035,0.0003539971122922969,-1.5361272900287638e-07,-0.0003612306672671457
4.71238898038469,0.000750131826554873,-1.536243788780298e-07,-0.0007652880874648484
4.747295565424577,0.0008046277376485381,-1.534127862521685e-07,-0.000820873705187761
4.782202150464463,0.0008462798651496218,-1.5297576778807258e-07,-0.0008633584382204023
4.817108735504349,0.0008837795512232993,-1.5231091218628083e-07,-0.0009016074531599516
4.852015320544236,0.0009191544789648253,-1.5141545905323304e-07,-0.0009376889840031751
4.886921905584122,0.0009532577715470509,-1.5028613221072984e-07,-0.0009724732131102026
4.9218284906240095,0.000986532979413292,-1.489189054526601e-07,-0.0010064125579070107
4.956735075663896,0.0010192375724169755,-1.473086648610854e-07,-0.001039769632530176
4.991641660703783,0.0010515305403178679,-1.454487068266155e-07,-0.001072706599831052
5.026548245743669,0.0010835131935134344,-1.4332996381526908e-07,-0.0011053267873475184
5.061454830783556,0.0011152505082584906,-1.4093975604800242e-07,-0.0011376964581797083
5.096361415823442,0.0011467832793394606,-1.382596673979077e-07,-0.0011698572045936476
5.1312680008633285,0.0011781355025450703,-1.3526168346778443e-07,-0.0012018334742794395
5.1661745859032155,0.001209319096934755,-1.3190056169473384e-07,-0.0012336373794351449
5.201081170943102,0.001240337056160249,-1.2809705237207168e-07,-0.001265271894335826
5.235987755982989,0.0012711856277046096,-1.2369527894994e-07,-0.0012967330355376518
5.270894341022875,0.0013018558667310125,-1.1832942648626431e-07,-0.001328011313492119
5.305800926062762,0.0013323347740951453,-1.1083130518399643e-07,-0.0013590923008822322
5.340707511102648,0.0013626061499086009,-9.193436457980033e-08,-0.0013899502072713527
5.375614096142535,0.001392651247667627,3.4888973726813757e-08,-0.0014204693836472528
5.410520681182422,0.0014224492854829863,7.898879904186369e-07,-0.0014501083832022274
5.445427266222308,0.0014519778529220682,2.6679738692658397e-06,-0.0014783494361112436
5.480333851262195,0.0014812132402591595,6.0590026136778804e-06,-0.0015047785024506649
5.515240436302081,0.0015101307091337694,1.1051061005001453e-05,-0.0015292822623114435
5.550147021341968,0.0015387047183183667,1.771387129604973e-05,-0.0015517649413886842
5.585053606381854,0.0015669091146267888,2.6205327816937194e-05,-0.0015720419691023872
5.619960191421741,0.0015947172964084647,3.673744557071873e-05,-0.0015898741967659152
5.654866776461628,0.0016221023552225368,4.9542806499198053e-05,-0.0016050015958277894
5.689773361501515,0.0016490371999421194,6.484287466145665e-05,-0.001617175069279505
5.724679946541401,0.0016754946665503132,8.281649686401142e-05,-0.0016261880630173082
5.759586531581287,0.0017014476161536399,0.0001035744432020429,-0.0016319021252746697
5.794493116621174,0.001726869023184338,0.00012714565879932255,-0.001634260744848702
5.82939970166106,0.0017517320553414202,0.00015347682955205004,-0.0016332898668961985
5.8643062867009474,0.0017760101464965033,0.00018244289133615682,-0.0016290874580902764
5.899212871740834,0.0017996770635392983,0.00021386414526631408,-0.0016218064595437702
5.934119456780721,0.0018227069679412886,0.00024752564734373836,-0.001611635459956376
5.969026041820607,0.0018450744726611922,0.00028319569126119914,-0.001598780270853217
6.003932626860494,0.001866754694892658,0.000320641747548968,-0.001583448041241543
6.03883921190038,0.0018877233050558502,0.00035964374630323827,-0.0015658340248537288
6.073745796940266,0.0019079565723547525,0.000400006071426563,-0.0015461096323752845
6.1086523819801535,0.0019274314071568443,0.000441571633782647,-0.0015244084015173342
6.14355896702004,0.0019461254003981553,0.00048424592950803435,-0.001500801978898084
6.178465552059927,0.0019640168601719995,0.0005280536757730214,-0.0014752435216024182
6.213372137099813,0.0019810848456219693,0.0005733122392830769,-0.0014473943032513317
6.2482787221397,0.00199730919822748,0.0006213716608857039,-0.0014158837213063258
