theta,z_plus,lambda_top,edge_margin
0.0,0.0013222187647147865,0.0007275551577482252,-0.0006211079822608569
0.03490658503988659,0.001330385016573095,0.001056889052596126,-0.0003001036643084311
0.06981317007977318,0.0013380116054919542,0.001423820185127557,5.904834752576372e-05
0.10471975511965978,0.0013450890649048153,0.0018084849564740332,0.0004364941102711216
0.13962634015954636,0.001351608434652274,0.0022012858449760543,0.0008226452416307348
0.17453292519943295,0.0013575612695370116,0.0025973700440476404,0.0012126575491198887
0.20943951023931956,0.0013629396461358407,0.0029939966125812206,0.001603798173522663
0.24434609527920614,0.0013677361678025876,0.0033894239331800843,0.001994333042021445
0.2792526803190927,0.0013719439677768177,0.0037824211075468475,0.0023830382604144934
0.3141592653589793,0.0013755567102922378,0.00417203804940516,0.0027689702049070774
0.3490658503988659,0.0013785685895541862,0.004557489667573027,0.003151349706227757
0.3839724354387525,0.0013809743264269257,0.004938093910696309,0.003529500097740845
0.4188790204786391,0.0013827691626372885,0.005313236896683265,0.0039028123507932307
0.4537856055185257,0.0013839488522599795,0.005682352442630514,0.004270724613325335
0.4886921905584123,0.0013845096501995703,0.006044909631819506,0.004632709788615944
0.5235987755982988,0.00138444829732232,0.006400405059010293,0.004988267795741527
0.5585053606381855,0.0013837620018140632,0.006748357900098085,0.00533692065824774
0.5934119456780721,0.0013824484162441198,0.00708830674167172,0.005678209357102717
0.6283185307179586,0.0013805056096935476,0.0074198075375939455,0.006011691815706527
0.6632251157578453,0.001377932034151174,0.007742432304450635,0.0063369416296164376
0.6981317007977318,0.0013747264841818942,0.008055768311093645,0.006653547297228113
0.7330382858376184,0.001370888048613904,0.008359417603998505,0.006961111794412323
0.767944870877505,0.001366416052654235,0.008652996763732624,0.007259252390025304
0.8028514559173916,0.0013613099883962897,0.008936136821814558,0.007547600633650343
0.8377580409572782,0.0013555694310878066,0.009208483289275479,0.007825802469565915
0.8726646259971648,0.0013491939377234085,0.009469696262802123,0.008093518446324246
0.9075712110370514,0.001342182923425544,0.009719450584150184,0.00835042400225613
0.9424777960769379,0.0013345355095515739,0.009957436035235454,0.008596209815492847
0.9773843811168246,0.0013262503353167019,0.010183357555984037,0.008830582213961002
1.0122909661567112,0.001317325321649196,0.010396935475321792,0.009053263647239611
1.0471975511965976,0.0013077573715177752,0.010597905748045398,0.009263993229097267
1.0821041362364843,0.0012975419843194538,0.010786020192029892,0.009462527368024049
1.117010721276371,0.0012866727518113814,0.01096104672148632,0.009648640514638712
1.1519173063162575,0.0012751406873334498,0.011122769572919054,0.009822126071838935
1.1868238913561442,0.001262933314863253,0.011270989521137163,0.009982797539976645
1.2217304763960306,0.0012500334027632847,0.011405524083211984,0.010130490012393434
1.2566370614359172,0.0012364171555711173,0.011526207708687782,0.010265062210005243
1.2915436464758039,0.0012220515491445062,0.01163289195467767,0.010386399374550274
1.3264502315156905,0.0012068902533712866,0.011725445644734333,0.01049441758629562
1.361356816555577,0.0011908671044069232,0.011803755010593275,0.010589070564098213
1.3962634015954636,0.0011738850499914079,0.011867723816055657,0.01067036106506442
1.4311699866353502,0.0011557960387773992,0.011917273462420469,0.010738361502867522
1.4660765716752369,0.001136360793535777,0.011952343074995195,0.010793255065588703
1.5009831567151235,0.0011151569346212178,0.011972889570319209,0.010835429497005567
1.53588974175501,0.001091322474661947,0.011978887703826699,0.010865738779671513
1.5707963267948966,0.0010625441554910822,0.011970330097760103,0.0108865350591592
1.6057029118347832,0.0010185610250651358,0.011947227249223917,0.010908295003657479
1.6406094968746698,0.0009519769942359725,0.011909607518344086,0.010938590984223394
1.6755160819145565,0.0008909864970208912,0.01185751709657279,0.01094871086961148
1.710422666954443,0.0008409556206257942,0.011791019955253626,0.010933245222215317
1.7453292519943295,0.0007996537175951908,0.011710197774641409,0.010894550982694314
1.7802358370342162,0.0007647771062431526,0.011615149853654538,0.010835077205286522
1.8151424220741028,0.0007346335812936751,0.011505993000731185,0.010756666747811637
1.8500490071139892,0.0007080307397147294,0.011382861406264839,0.010660670051755815
1.8849555921538759,0.0006841221472649317,0.011245906497215158,0.010548101907004927
1.9198621771937625,0.0006622956970442676,0.01109529677463212,0.010419755163646967
1.9547687622336491,0.0006420996685221987,0.010931217635001662,0.01027627597310902
1.9896753472735358,0.0006231942409235476,0.010753871176528696,0.010118213050786678
2.0245819323134224,0.0006053193073085726,0.01056347599173206,0.009946050298277316
2.059488517353309,0.000588272701905617,0.010360266948050739,0.00976022879210701
2.0943951023931953,0.0005718951685575121,0.010144494958576847,0.009561161886648184
2.129301687433082,0.0005560597740009326,0.009916426745569331,0.00934924577608838
2.1642082724729685,0.0005406643097295065,0.009676344600108328,0.009124867004184231
2.199114857512855,0.0005256257420968078,0.009424546142188149,0.008888407885249406
2.234021442552742,0.0005108760917581544,0.009161344086808104,0.008640250473214787
2.2689280275926285,0.0004963593273585229,0.008887066023336578,0.008380779509430884
2.303834612632515,0.0004820289899623219,0.008602054217791227,0.00811038464802966
2.3387411976724017,0.0004678463511942903,0.008306665450985318,0.007829462172767141
2.3736477827122884,0.00045377896583270516,0.008001270910174867,0.007538416365025508
2.4085543677521746,0.0004397995187660632,0.00768625615857773,0.007237660649436345
2.443460952792061,0.00042588489310502057,0.007362021216971014,0.006927618626003893
2.478367537831948,0.00041201540483105573,0.0070289808061824045,0.006608725093254728
2.5132741228718345,0.00039817416221423163,0.006687564821384766,0.006281427175926249
2.548180707911721,0.0003843465169644698,0.006338219143191539,0.00594618569588778
2.5830872929516078,0.00037051957968091377,0.005981406944293445,0.005603476973018913
2.6179938779914944,0.0003566817751461244,0.005617610737157608,0.005253795326508561
2.652900463031381,0.0003428224134695794,0.005247335552180115,0.004897656690441144
2.6878070480712677,0.00032893125063555807,0.004871113881285647,0.004535604005637377
2.722713633111154,0.0003149980055843562,0.004489513455158604,0.004168215489462561
2.7576202181510405,0.0003010117883041071,0.004103149714823491,0.0037961176907533017
2.792526803190927,0.00028696037002574963,0.0037127063491582636,0.003420006771731999
2.827433388230814,0.0002728291833122102,0.0033189702868697026,0.003040684519891248
2.8623399732707004,0.0002585998570581124,0.0029228938781117033,0.0026591220239124288
2.897246558310587,0.0002442479248451288,0.0025257111486529675,0.002276578265310936
2.9321531433504737,0.0002297389859700492,0.002129168571304731,0.0018948348056152806
2.9670597283903604,0.0002150217517035958,0.0017360153228930912,0.0015166931361554235
3.001966313430247,0.00020001416317660126,0.0013511180672087742,0.001147103620768641
3.036872898470133,0.00018457176023332423,0.0009840875499942127,0.000795824354556222
3.07177948351002,0.00016839964378116787,0.0006546981322734268,0.0004829304956166356
3.1066860685499065,0.0001507003477913041,0.00039584130646307125,0.0002421269517159411
3.141592653589793,0.00024506985396120085,0.000228090575226561,-2.1880675813863856e-05
3.1764992386296798,0.00013017899858300285,0.00013042096545270304,-2.3616131019598666e-06
3.2114058236695664,0.00011884066808230545,7.255935051756476e-05,-4.8658130926386805e-05
3.246312408709453,0.00010827012985987011,3.719426533814866e-05,-7.324126711891885e-05
3.2812189937493397,9.841140518364448e-05,1.5891412897576692e-05,-8.448822038974069e-05
3.3161255787892263,8.921423108007774e-05,3.885943937488783e-06,-8.71125717641905e-05
3.351032163829113,8.063345056247935e-05,-3.2686084718238927e-09,-8.224938818220076e-05
3.385938748868999,7.262848652971481e-05,-9.490855072303876e-09,-7.409054711538142e-05
3.420845333908886,6.516288816155241e-05,-1.4855634094137081e-08,-6.64810015588776e-05
3.4557519189487724,5.820394059336082e-05,-1.9853828297936836e-08,-5.938787323352597e-05
3.490658503988659,5.172233031581574e-05,-2.4618924815248025e-08,-5.27813958469473e-05
3.5255650890285457,4.569186018156177e-05,-2.9209819337058583e-08,-4.663490720453006e-05
3.5604716740684323,4.008920916769333e-05,-3.3657377278627854e-08,-4.092465072832582e-05
3.595378259108319,3.489373319168701e-05,-3.7979127015576284e-08,-3.562958698253633e-05
3.6302848441482056,3.0087304357265412e-05,-4.2185320010952804e-08,-3.073123576442168e-05
3.6651914291880923,2.56541870640519e-05,-4.6281861858166245e-08,-2.6213552667191103e-05
3.7000980142279785,2.1580950503036847e-05,-5.027189226514053e-08,-2.2062841405362725e-05
3.735004599267865,1.7856418239274563e-05,-5.415670718468486e-08,-1.8267703311244736e-05
3.7699111843077517,1.4471656928321026e-05,-5.793633092170262e-08,-1.481902639780915e-05
3.8048177693476384,1.1420007820207825e-05,-6.160988881763746e-08,-1.171001786542962e-05
3.839724354387525,8.697166704401146e-06,-6.517585997365979e-08,-8.93628589846283e-06
3.8746309394274117,6.301320522288705e-06,-6.863225457390971e-08,-6.495979187308389e-06
3.9095375244672983,4.233352278436942e-06,-7.19767420989528e-08,-4.389996066104633e-06
3.944444109507185,2.497130493942308e-06,-7.520674662035352e-08,-2.6222798504415077e-06
3.9793506945470716,1.0999058219883743e-06,-7.831951953249362e-08,-1.2002234579606353e-06
4.014257279586958,5.2846428784472165e-08,-8.131219655816034e-08,-1.3521555391832194e-07
4.049163864626845,-6.28243373567737e-07,-8.418184367346768e-08,5.440615298942693e-07
4.084070449666731,-9.219579444390684e-07,-8.692549516317163e-08,8.350324492758968e-07
4.118977034706618,-7.999873037537475e-07,-8.954018604542804e-08,7.104471177083195e-07
4.153883619746504,-2.2534256877913249e-07,-9.202298040229814e-08,1.3331958837683434e-07
4.1887902047863905,8.500896533372948e-07,-9.437099660907568e-08,-9.614624430131164e-07
4.223696789826278,2.4889677054556744e-06,-9.65814300215764e-08,-2.635328489586364e-06
4.258603374866164,4.773363629885879e-06,-9.865157331653099e-08,-4.967482475800127e-06
4.293509959906051,7.81183779309768e-06,-1.0057883438740575e-07,-8.06865338334704e-06
4.328416544945937,1.1749968112274614e-05,-1.023607514895367e-07,-1.2087328226009643e-05
4.363323129985824,1.6786463367946818e-05,-1.0399500520419825e-07,-1.7226187640509952e-05
4.39822971502571,2.3198637042112455e-05,-1.0547942677977304e-07,-2.376808920973448e-05
4.4331363000655974,3.138425116025685e-05,-1.068120024769384e-07,-3.2118748185938924e-05
4.468042885105484,4.1933459332532676e-05,-1.0799087369675381e-07,-4.288011939288008e-05
4.50294947014537,5.5759531455315525e-05,-1.0901433283568646e-07,-5.698373641725752e-05
4.537856055185257,7.435320534212564e-05,-1.0988081496764622e-07,-7.595015026393579e-05
4.572762640225143,0.00010032256236903228,-1.105888855379222e-07,-0.00010243960250195084
4.60766922526503,0.0001386783937914416,-1.1113722424397845e-07,-0.0001415630988915144
4.642575810304916,0.00020042502231311203,-1.1152460515631032e-07,-0.00020454504736453058
4.6774823953448035,0.00031533788747421316,-1.1174987289832704e-07,-0.00032175639509659577
4.71238898038469,0.0005626991899007947,-1.1181191435195633e-07,-0.0005740649856131626
4.747295565424577,0.0006006391027877924,-1.1170962489508434e-07,-0.0006127635944684433
4.782202150464463,0.0006277447330553145,-1.1144186756738893e-07,-0.0006404110695839882
4.817108735504349,0.0006516560181050782,-1.1100742276773443e-07,-0.0006648001458899475
4.852015320544236,0.0006739342040252429,-1.1040492499979931e-07,-0.0006875232930307476
4.886921905584122,0.0006952190349814008,-1.0963278163308567e-07,-0.0007092330484626618
4.9218284906240095,0.0007158403873384429,-1.0868906636749124e-07,-0.0007302658841515793
4.956735075663896,0.0007359899671403836,-1.0757137658586771e-07,-0.0007508173378597771
4.991641660703783,0.0007557872101584648,-1.0627663826408445e-07,-0.0007710092309998982
5.026548245743669,0.000775309568635941,-1.048008331202645e-07,-0.0007909205608417802
5.061454830783556,0.0007946082086510238,-1.0313860760010284e-07,-0.0008106035114316443
5.096361415823442,0.0008137168849618077,-1.0128269703739418e-07,-0.0008300925053580813
5.1312680008633285,0.000832657302578841,-9.922305077020293e-08,-0.000849409671681188
5.1661745859032155,0.0008514425306577345,-9.694545370572367e-08,-0.000868568326724595
5.201081170943102,0.0008700792716007183,-9.442925846457918e-08,-0.0008875752862911973
5.235987755982989,0.0008885694244594902,-9.164345154907631e-08,-0.0009064324564002291
5.270894341022875,0.0009069111957407654,-8.853935356566043e-08,-0.0009251379590091464
5.305800926062762,0.0009250999100512036,-8.503574933392233e-08,-0.0009436869440015616
5.340707511102648,0.0009431286158704971,-8.098346038516373e-08,-0.0009620721716482922
5.375614096142535,0.000960988547952746,-7.602572336352233e-08,-0.0009802843446351643
5.410520681182422,0.0009786694871661934,-3.675530397113162e-08,-0.0009982796322134885
5.445427266222308,0.0009961600455191935,1.661945514222122e-07,-0.001015917051878155
5.480333851262195,0.0010134478956489936,7.57648913027265e-07,-0.001032959204648946
5.515240436302081,0.0010305199584234232,1.8219428317046545e-06,-0.001049308414760187
5.550147021341968,0.001047362558488045,3.334165950383677e-06,-0.0010649756437074221
5.585053606381854,0.0010639615549510092,5.300362734492069e-06,-0.0010799404233155373
5.619960191421741,0.0010803024525398637,7.73891867257294e-06,-0.001094169582918088
5.654866776461628,0.0010963704972362595,1.068662412800987e-05,-0.0011076112830529748
5.689773361501515,0.0011121507594311834,1.4213465882031757e-05,-0.0011201803087377753
5.724679946541401,0.0011276282069353505,1.8434389609198948e-05,-0.0011317463814648585
5.759586531581287,0.0011427877696527646,2.351325738644563e-05,-0.0011421302676593741
5.794493116621174,0.0011576143973291997,2.9650037068783497e-05,-0.001151116648207
5.82939970166106,0.0011720931114861332,3.7045968809989415e-05,-0.0011584890049058665
5.8643062867009474,0.0011862090524193572,4.5861786656460675e-05,-0.0011640714468112837
5.899212871740834,0.0011999475219622467,5.61979967930364e-05,-0.0011677484756084553
5.934119456780721,0.0012132940225735487,6.810705753704824e-05,-0.0011694528454879714
5.969026041820607,0.0012262342931990352,8.162140818568299e-05,-0.001169137570877333
6.003932626860494,0.0012387543422685211,9.678286233267801e-05,-0.0011667465667812135
6.03883921190038,0.001250840478119297,0.00011367904327285408,-0.001162178244408829
6.073745796940266,0.0012624793370800695,0.00013252456837958607,-0.001155204355442085
6.1086523819801535,0.0012736579094030035,0.00015393362635295578,-0.0011451974412381078
6.14355896702004,0.001284363563193161,0.00018015135532523164,-0.0011298994791317926
6.178465552059927,0.0012945840664526842,0.0002213179281079942,-0.0010991578196737435
6.213372137099813,0.0013043076073301209,0.00030640965586160634,-0.0010239841036151168
6.2482787221397,0.0013135228126421505,0.0004695510226298844,-0.000870242246265109
