theta,z_plus,lambda_top,edge_margin
0.0,0.0012911578056948915,0.0006298121921188167,-0.0006871687696899725
0.03490658503988659,0.0012990963669264593,0.0009381326758343797,-0.0003869456184306087
0.06981317007977318,0.0013065095656131093,0.0012918103725053386,-4.082938442003274e-05
0.10471975511965978,0.0013133882001105275,0.0016676012212620208,0.0003279452571492826
0.13962634015954636,0.0013197235609738263,0.0020537795410996845,0.0007076615089063817
0.17453292519943295,0.0013255074392671488,0.002444488616395021,0.001092471028342529
0.20943951023931956,0.0013307321331740404,0.002836514718432129,0.0014791679425946078
0.24434609527920614,0.0013353904528440469,0.0032278805732251542,0.0018657823113242265
0.2792526803190927,0.0013394757233927176,0.0036172303194969505,0.002250965081636379
0.3141592653589793,0.0013429817859515257,0.004003543925587124,0.002633702503916568
0.3490658503988659,0.0013459029966403975,0.00438599539918624,0.0030131743426130343
0.3839724354387525,0.0013482342233075463,0.004763877948659732,0.003388679040886035
0.4188790204786391,0.0013499708398479844,0.005136562347812559,0.003759592091167615
0.4537856055185257,0.0013511087178718574,0.005503472729220122,0.004125341836990828
0.4886921905584123,0.0013516442154447273,0.005864071993093736,0.004485394893340114
0.5235987755982988,0.0013515741625615666,0.006217852756293797,0.004839247110480999
0.5585053606381855,0.0013508958429412545,0.006564331616036348,0.005186417856236269
0.5934119456780721,0.0013496069716344952,0.006903045462840471,0.005526446351773286
0.6283185307179586,0.0013477056678194974,0.007233549096885651,0.005858889315709764
0.6632251157578453,0.0013451904220087845,0.007555413693955541,0.006183319463506581
0.6981317007977318,0.0013420600566965773,0.007868225836829935,0.0064993245789994256
0.7330382858376184,0.0013383136792249365,0.008171586929595607,0.006806506976786171
0.767944870877505,0.0013339506253181358,0.008465112874856497,0.007104483237031998
0.8028514559173916,0.0013289703913004739,0.008748433933232113,0.00739288413410563
0.8377580409572782,0.0013233725524327616,0.009021194709933874,0.0076713547064524564
0.8726646259971648,0.0013171566640192056,0.009283054229917903,0.007939554432618314
0.9075712110370514,0.0013103221408645794,0.009533686074309829,0.008197157490627958
0.9424777960769379,0.0013028681091753105,0.009772778558430154,0.008443853087071337
0.9773843811168246,0.0012947932229063523,0.010000034937036537,0.008679345849672056
1.0122909661567112,0.0012860954335634969,0.010215173626117163,0.008903356283882396
1.0471975511965976,0.0012767716981130753,0.010417928433219661,0.009115621301144326
1.0821041362364843,0.0012668176031773288,0.010608048790216058,0.009315894834975183
1.117010721276371,0.0012562268738615142,0.010785299983805771,0.009503948572467027
1.1519173063162575,0.0012449907202504865,0.010949463380097791,0.009679572845442295
1.1868238913561442,0.0012330969501007148,0.011100336640392842,0.009842577751290113
1.2217304763960306,0.001220528735732606,0.011237733925877992,0.009992794615430733
1.2566370614359172,0.0012072628536375471,0.011361486089402045,0.010130077978691747
1.2915436464758039,0.0011932670909484953,0.01147144085285445,0.010254308420086984
1.3264502315156905,0.0011784962788703413,0.011567462968950837,0.010365396764503088
1.361356816555577,0.0011628859453457908,0.011649434366452965,0.010463290702200258
1.3962634015954636,0.0011463415727720103,0.011717254278033658,0.010547985873806207
1.4311699866353502,0.0011287190721627097,0.011770839350148537,0.010619545896542574
1.4660765716752369,0.001109785772304956,0.01181012373440439,0.010678142246653335
1.5009831567151235,0.0010891314791440618,0.01183505916002408,0.010724145051297136
1.53588974175501,0.001065920924216421,0.011845614987104212,0.010758375644403462
1.5707963267948966,0.0010379239356739388,0.011841778240450119,0.0107830958260627
1.6057029118347832,0.0009953826084053792,0.011823553623852553,0.010808263363279067
1.6406094968746698,0.0009309893687794271,0.01179096351474817,0.010841354358593153
1.6755160819145565,0.0008717003841666472,0.011744047939280553,0.010854913547430574
1.710422666954443,0.0008229428754918514,0.01168286452785447,0.01084346279485278
1.7453292519943295,0.0007826360708109325,0.011607488451353856,0.010809199659126705
1.7802358370342162,0.000748570758110666,0.011518012338277647,0.010754470165004767
1.8151424220741028,0.0007191125194174655,0.011414546173138147,0.010681051403332333
1.8500490071139892,0.0006931055940740985,0.011297217176568421,0.010590249470612842
1.8849555921538759,0.0006697277627506146,0.011166169667701818,0.010483047349696191
1.9198621771937625,0.0006483835277049456,0.011021564909523378,0.010360213711264334
1.9547687622336491,0.0006286329292511755,0.010863580938055957,0.010222375350219758
1.9896753472735358,0.0006101447011585408,0.010692412376442164,0.010070064781260452
2.0245819323134224,0.0005926651011048672,0.010508270235228896,0.009903751832101931
2.059488517353309,0.0005759967894989992,0.01031138170046876,0.009723864975179781
2.0943951023931953,0.0005599842286921084,0.010101989911645341,0.009530805998379391
2.129301687433082,0.0005445033890127181,0.009880353731934586,0.009324960275141613
2.1642082724729685,0.000529454354502465,0.009646747513976687,0.009106704072384172
2.199114857512855,0.0005147559181147443,0.009401460865207042,0.008876409828730003
2.234021442552742,0.0005003415664545322,0.00914479841796773,0.008634450020184108
2.2689280275926285,0.0004861564512409317,0.008877079611210325,0.008381200030944575
2.303834612632515,0.00047215507211142163,0.008598638492784076,0.008117040319230426
2.3387411976724017,0.0004582994792270369,0.008309823554341372,0.007842358085529794
2.3736477827122884,0.00044455786020190856,0.008010997615176537,0.007557548597770591
2.4085543677521746,0.00043090341392090407,0.00770253777744373,0.007263016295244408
2.443460952792061,0.0004173134399292312,0.007384835484105885,0.006959175775378069
2.478367537831948,0.00040376859014790834,0.007058296724119235,0.006646452762168369
2.5132741228718345,0.0003902522421608897,0.006723342449130882,0.006325285162126775
2.548180707911721,0.00037674996180246895,0.006380409296269776,0.005996124335231258
2.5830872929516078,0.00036324902820220463,0.006029950759037419,0.00565943675027117
2.6179938779914944,0.0003497379973131989,0.005672439024263637,0.005315706267004174
2.652900463031381,0.00033620628034111786,0.005308367817883244,0.004965437411935304
2.6878070480712677,0.00032264371102079433,0.004938256813163129,0.0046091602279219185
2.722713633111154,0.0003090400692919756,0.004562658522697563,0.004247437652019748
2.7576202181510405,0.0002953845163783009,0.004182169259468768,0.0038808770527629013
2.792526803190927,0.0002816648731137552,0.0037974469993445493,0.003510148828768519
2.827433388230814,0.0002678666305058505,0.0034092414253271714,0.003136017462211204
2.8623399732707004,0.0002539714996381438,0.0030184464829257976,0.002759395553294891
2.897246558310587,0.00023995514328063129,0.0026261967787213486,0.002381442532575105
2.9321531433504737,0.00022578337649746554,0.0022340545950454145,0.0020037555510179998
2.9670597283903604,0.00021140528651359937,0.0018443966578940226,0.0016287632656501513
3.001966313430247,0.00019673950220748404,0.0014612688305347707,0.001260594538283137
3.036872898470133,0.00018164291982254436,0.0010923633004496195,0.0009070875222306242
3.07177948351002,0.00016582369070365774,0.0007533032063257669,0.0005841630418080359
3.1066860685499065,0.00014849332303896266,0.00047247594121224733,0.0003210127517125054
3.141592653589793,0.00024164722771232653,0.00027735665447213976,3.08764822055667e-05
3.1764992386296798,0.0001288309482106803,0.00015970789377766807,2.830032660277416e-05
3.2114058236695664,0.00011779475339859243,8.920606016614943e-05,-3.094458830041485e-05
3.246312408709453,0.0001074981571498764,4.5465919163074645e-05,-6.418220112979927e-05
3.2812189937493397,9.788829201807957e-05,1.924019113005653e-05,-8.060586672838462e-05
3.3161255787892263,8.891760328019825e-05,4.485541860866361e-06,-8.621041348493584e-05
3.351032163829113,8.054329761413035e-05,-3.8188498629689374e-09,-8.215798241627593e-05
3.385938748868999,7.272686600994554e-05,-1.0521338615652625e-08,-7.419192466876011e-05
3.420845333908886,6.54336713936698e-05,-1.582915855874507e-08,-6.675817398010193e-05
3.4557519189487724,5.8632593084001564e-05,-2.0634035262188907e-08,-5.982587898094379e-05
3.490658503988659,5.229572161422168e-05,-2.5154725992300392e-08,-5.336679077249841e-05
3.5255650890285457,4.639809868646128e-05,-2.9478862813410574e-08,-4.735553952300391e-05
3.5604716740684323,4.091749813005045e-05,-3.3649617325146204e-08,-4.1769497709976605e-05
3.595378259108319,3.58342447527519e-05,-3.7690670889373726e-08,-3.6588620318696314e-05
3.6302848441482056,3.11310689449492e-05,-4.161573162195505e-08,-3.179530605547014e-05
3.6651914291880923,2.679299586552082e-05,-4.543284973565131e-08,-2.737428863256689e-05
3.7000980142279785,2.2807269052195593e-05,-4.9146623106503996e-08,-2.3312561056346008e-05
3.735004599267865,1.9163309415560254e-05,-5.2759428270858604e-08,-1.9599335032142318e-05
3.7699111843077517,1.585271186594954e-05,-5.627215563737774e-08,-1.622603825890591e-05
3.8048177693476384,1.2869283379831867e-05,-5.968467292225504e-08,-1.3186353720350758e-05
3.839724354387525,1.0209128264296868e-05,-6.299613044172188e-08,-1.0476306960024528e-05
3.8746309394274117,7.870788902705495e-06,-6.620516977072834e-08,-8.094409850530334e-06
3.9095375244672983,5.855453615676098e-06,-6.931007088954315e-08,-6.041872758879163e-06
3.944444109507185,4.167247819787005e-06,-7.230885878465297e-08,-4.322901634967398e-06
3.9793506945470716,2.8136309613307677e-06,-7.519938250411152e-08,-2.9451029630614944e-06
4.014257279586958,1.805930574130235e-06,-7.797937499103982e-08,-1.9200285606038795e-06
4.049163864626845,1.1600575346666791e-06,-8.064649917815509e-08,-1.2639051845381677e-06
4.084070449666731,8.974651627725899e-07,-8.319838404040934e-08,-9.98612850068451e-07
4.118977034706618,1.0464424344886555e-06,-8.56326531502374e-08,-1.153003936328666e-06
4.153883619746504,1.6438734473985355e-06,-8.794694752133419e-08,-1.7646978638678403e-06
4.1887902047863905,2.737660119230952e-06,-9.013894400695137e-08,-2.8825522656225223e-06
4.223696789826278,4.390107849513621e-06,-9.22063701615602e-08,-4.570116376665453e-06
4.258603374866164,6.682740903991639e-06,-9.41470162213566e-08,-6.910542738292829e-06
4.293509959906051,9.723293649237432e-06,-9.595874467643191e-08,-1.0013718266898613e-05
4.328416544945937,1.3656106234911028e-05,-9.76394977652294e-08,-1.4026867857374478e-05
4.363323129985824,1.8678017410137293e-05,-9.918730311836427e-08,-1.9150765061458404e-05
4.39822971502571,2.506346060922336e-05,-1.0060027769216197e-07,-2.566533009909999e-05
4.4331363000655974,3.3205631357496765e-05,-1.0187663005621816e-07,-3.3971620614702916e-05
4.468042885105484,4.368715279552735e-05,-1.0301466103127063e-07,-4.466391051246917e-05
4.50294947014537,5.7408226009028214e-05,-1.040127626036233e-07,-5.86604032918124e-05
4.537856055185257,7.583535875364854e-05,-1.0486941496971285e-07,-7.745693534369122e-05
4.572762640225143,0.00010152762922985194,-1.0558318147674074e-07,-0.00010366376499592572
4.60766922526503,0.0001393842835496295,-1.0615270111613929e-07,-0.00014227812192173822
4.642575810304916,0.00020010865066661892,-1.065766780930962e-07,-0.0002042174003580444
4.6774823953448035,0.00031241377411122455,-1.0685386780874516e-07,-0.0003187689034612578
4.71238898038469,0.0005516440087479926,-1.0698305834017728e-07,-0.0005627838719812926
4.747295565424577,0.0005887248761857462,-1.069630461499122e-07,-0.0006006063367556111
4.782202150464463,0.0006151658598776462,-1.0679260425138297e-07,-0.0006275759696794505
4.817108735504349,0.0006384791769900256,-1.0647044030559336e-07,-0.0006513552309701316
4.852015320544236,0.0006601937306385667,-1.0599514101704932e-07,-0.0006735036003923551
4.886921905584122,0.000680935566640353,-1.0536509747399964e-07,-0.0006946596430706341
4.9218284906240095,0.0007010274202859972,-1.045784033806872e-07,-0.0007151525470950978
4.956735075663896,0.0007206568446025158,-1.0363271373428336e-07,-0.0007351736142083004
4.991641660703783,0.0007399407059665389,-1.0252504411692198e-07,-0.0007548420451299866
5.026548245743669,0.0007589548154712165,-1.0125147789491264e-07,-0.0007742351632585358
5.061454830783556,0.0007777492830495195,-9.980672504139008e-08,-0.0007934040754355513
5.096361415823442,0.0007963571967666071,-9.81834308997979e-08,-0.0008123825241328391
5.1312680008633285,0.0008147998655456779,-9.637103984746542e-08,-0.000831192233896439
5.1661745859032155,0.0008330901570162931,-9.435381146476846e-08,-0.0008498463139680838
5.201081170943102,0.0008512347158590197,-9.210707971830219e-08,-0.0008683515172559184
5.235987755982989,0.000869235492103974,-8.958944493581128e-08,-0.0008867097913909893
5.270894341022875,0.0008870908269047462,-8.672405530516193e-08,-0.0009049193674981462
5.305800926062762,0.0009047962448506445,-8.334397838374515e-08,-0.0009229755137260411
5.340707511102648,0.00092234504599025,-7.897902812051552e-08,-0.0009408709259381755
5.375614096142535,0.0009397287576971107,-7.161804663102514e-08,-0.000958594950897684
5.410520681182422,0.0009569374862768995,-5.022077448002271e-08,-0.0009761264567769175
5.445427266222308,0.0009739601954434477,4.759649557860156e-08,-0.000993391802856738
5.480333851262195,0.0009907849305084444,4.417564860434809e-07,-0.0010101588726325699
5.515240436302081,0.0010073990016287258,1.1669095861548375e-06,-0.0010263800720751455
5.550147021341968,0.0010237891357228685,2.1690088826312154e-06,-0.0010420959095546946
5.585053606381854,0.001039941604087651,3.425883948870992e-06,-0.001057314552220533
5.619960191421741,0.0010558423309286133,4.941051833433977e-06,-0.0010720181257137516
5.654866776461628,0.0010714769867204692,6.7323076140447485e-06,-0.001086174218840834
5.689773361501515,0.0010868310693714746,8.831664295411365e-06,-0.0010997360264634927
5.724679946541401,0.001101889975473791,1.1291195734705947e-05,-0.001112636579248561
5.759586531581287,0.0011166390634071224,1.4191134259470673e-05,-0.0011247807104157943
5.794493116621174,0.0011310637096755818,1.7644884621816828e-05,-0.0011360400992472767
5.82939970166106,0.001145149359563316,2.179622388856928e-05,-0.001146256122866013
5.8643062867009474,0.0011588815729683451,2.681087280546457e-05,-0.0011552483316222475
5.899212871740834,0.0011722460660988604,3.285672584691383e-05,-0.0011628342615739237
5.934119456780721,0.0011852287495792892,4.007496831656114e-05,-0.0011688583562543139
5.969026041820607,0.0011978157634054101,4.858566910728009e-05,-0.0011731864095662382
6.003932626860494,0.00120999350910195,5.851805596278224e-05,-0.0011756753233212068
6.03883921190038,0.0012217486793672319,7.002108814874773e-05,-0.0011761625648058288
6.073745796940266,0.0012330682854337842,8.325802015083614e-05,-0.0011744716309916236
6.1086523819801535,0.0012439396823283777,9.860812331862449e-05,-0.001170210352656321
6.14355896702004,0.0012543505921775145,0.00012825652998090992,-0.001151181074040155
6.178465552059927,0.0012642891256731932,0.00017592562141062717,-0.00111364928677603
6.213372137099813,0.0012737438017874103,0.00025699880564024726,-0.0010422198721829112
6.2482787221397,0.0012827035658012791,0.00039946987894779964,-0.000908887758169505
