theta,z_plus,lambda_top,edge_margin
0.0,0.0012727287581137457,0.00047204676502504977,-0.0008261365682509708
0.03490658503988659,0.0012805526186985977,0.0007355985248769608,-0.0005705651461956089
0.06981317007977318,0.0012878586441953587,0.0010681025420961796,-0.00024551327498308637
0.10471975511965978,0.0012946377657683302,0.0014364673334215936,0.00011593681233789668
0.13962634015954636,0.0013008813996665675,0.00182156952010028,0.0004946704924403812
0.17453292519943295,0.0013065814554119658,0.0022142485401763752,0.0008815354556561703
0.20943951023931956,0.0013117303423121588,0.0026098785517774115,0.0012719136026190095
0.24434609527920614,0.0013163209742345786,0.003005839438250242,0.0016631920445309718
0.2792526803190927,0.0013203467725600125,0.003400457859450756,0.002053704151439543
0.3141592653589793,0.0013238016672136082,0.0037925440058330174,0.002442266305275137
0.3490658503988659,0.0013266800956477824,0.004181174006839372,0.002827960309278634
0.3839724354387525,0.001328976999623894,0.004565580406989733,0.0032100238673733613
0.4188790204786391,0.0013306878196066676,0.004945093601593856,0.003587792025595055
0.4537856055185257,0.0013318084865456923,0.0053191088853107495,0.003960664229034143
0.4886921905584123,0.0013323354107699747,0.005687067116635497,0.0043280849976501225
0.5235987755982988,0.0013322654676619936,0.0060484429817973815,0.0046895322047821476
0.5585053606381855,0.0013315959797037783,0.006402737682676183,0.005044509783378329
0.5934119456780721,0.0013303246943949484,0.006749474295907176,0.005392543107624328
0.6283185307179586,0.001328449757425712,0.007088194796606196,0.0057331760440319695
0.6632251157578453,0.001325969680338927,0.007418458148127992,0.006065969074182286
0.6981317007977318,0.001322883301724096,0.007739839090645035,0.006390498122886458
0.7330382858376184,0.0013191897407383278,0.008051927396913131,0.006706353861360037
0.767944870877505,0.0013148883414251596,0.008354327445397484,0.007013141337143822
0.8028514559173916,0.0013099786058737913,0.008646658011614516,0.007310479833623249
0.8377580409572782,0.0013044601136893107,0.008928552210701116,0.0075980028947380185
0.8726646259971648,0.0012983324244716986,0.009199657545074165,0.007875358472113032
0.9075712110370514,0.0012915949589442717,0.009459636024833247,0.00814220916671009
0.9424777960769379,0.0012842468529062833,0.0097081643378488,0.008398232547884391
0.9773843811168246,0.001276286776121229,0.009944934052840864,0.00864312154119721
1.0122909661567112,0.0012677127053009958,0.010169651843181474,0.008876584883774458
1.0471975511965976,0.0012585216360476153,0.010382039722280374,0.009098347653511807
1.0821041362364843,0.0012487092122286782,0.010581835283652617,0.009308151887179365
1.117010721276371,0.0012382692415635233,0.010768791940390769,0.009505757313995975
1.1519173063162575,0.001227193051095938,0.010942679159959005,0.009690942247841148
1.1868238913561442,0.0012154686120477278,0.011103282691114075,0.009863504706825392
1.2217304763960306,0.0012030793235706248,0.011250404780428446,0.010023263870386408
1.2566370614359172,0.001190002276353016,0.011383864376401261,0.010170062054521185
1.2915436464758039,0.001176205694327549,0.011503497319538033,0.010303767511323933
1.3264502315156905,0.0011616450217694456,0.011609156517089195,0.010424278594884361
1.361356816555577,0.0011462566613977877,0.011700712101383527,0.010531530306757783
1.3962634015954636,0.001129947375722331,0.011778051570890812,0.010625505247654033
1.4311699866353502,0.001112575019954983,0.011841079913310688,0.010706253392956605
1.4660765716752369,0.0010939100416327964,0.011889719710120473,0.010773931467655021
1.5009831567151235,0.001073547681464519,0.011923911222130434,0.010828892587036626
1.53588974175501,0.0010506634924845476,0.011943612455695349,0.01087193569336111
1.5707963267948966,0.0010230546347782005,0.011948799209320595,0.010905283481846832
1.6057029118347832,0.000981064943295726,0.01193946510048257,0.01093877885832093
1.6406094968746698,0.000917503058694815,0.011915621572559269,0.010979768452690558
1.6755160819145565,0.0008590201946697453,0.011877297881840089,0.011001097283276948
1.710422666954443,0.0008109417516809455,0.011824541064656018,0.010997380477941453
1.7453292519943295,0.0007712039354934677,0.011757415884744667,0.01097078787054133
1.7802358370342162,0.0007376236987054638,0.011676004761040987,0.010923628588361415
1.8151424220741028,0.0007085874746108215,0.011580407676166329,0.01085764845206329
1.8500490071139892,0.0006829547607372466,0.011470742065978388,0.010774128210026396
1.8849555921538759,0.0006599144152933818,0.01134714269064591,0.01067402998704666
1.9198621771937625,0.0006388790738807259,0.011209761487828412,0.01055810483247007
1.9547687622336491,0.0006194148456272391,0.011058767408678623,0.010426964266138839
1.9896753472735358,0.0006011950684321398,0.01089434623754948,0.010281127267748696
2.0245819323134224,0.0005839695477493671,0.010716700396488296,0.010121051457783942
2.059488517353309,0.0005675437165859107,0.010526048735850082,0.009947154144932453
2.0943951023931953,0.000551764231442232,0.010322626312674926,0.009759826796603848
2.129301687433082,0.0005365088183616027,0.010106684158875869,0.009559445164147034
2.1642082724729685,0.0005216789800105301,0.009878489041802116,0.009346376482191375
2.199114857512855,0.0005071946654263756,0.009638323220422847,0.009120984661687944
2.234021442552742,0.0004929903104397111,0.009386484201280996,0.00888363408463249
2.2689280275926285,0.0004790118513330993,0.009123284499581295,0.008634692411221534
2.303834612632515,0.00046521444006510944,0.0088490514124317,0.008374532683565288
2.3387411976724017,0.0004515606721180039,0.008564126813539838,0.008103534927979474
2.3736477827122884,0.0004380191933425927,0.0082688669818562,0.007822087404646755
2.4085543677521746,0.0004245635897021767,0.007963642481176869,0.007530587619680649
2.443460952792061,0.00041117148958416937,0.007648838114222862,0.0072294431948470095
2.478367537831948,0.00039782382617251473,0.00732485298421574,0.006919072681519775
2.5132741228718345,0.00038450421969585626,0.006992100711092663,0.00659990640700289
2.548180707911721,0.00037119844773398334,0.006651009870881982,0.006272387454193319
2.5830872929516078,0.0003578939771207158,0.006302024759770011,0.0059369729031068805
2.6179938779914944,0.00034457953381303254,0.005945606636486227,0.0055941355119969345
2.652900463031381,0.0003312446874864497,0.005582235680849283,0.0052443660996131045
2.6878070480712677,0.00031787942518665533,0.0052124140461148345,0.004888177032424446
2.722713633111154,0.0003044736820709295,0.00483667062177626,0.004526107466063912
2.7576202181510405,0.0002910167849161691,0.004455568545774571,0.004158731425160079
2.792526803190927,0.0002774967412604479,0.004069717279303782,0.003786670603218125
2.827433388230814,0.0002638992648357084,0.0036797925370819287,0.0034106152869495063
2.8623399732707004,0.0002502063472943153,0.003286570329750058,0.0030313598555098565
2.897246558310587,0.00023639402397359819,0.0028909876340057804,0.0026498657295527103
2.9321531433504737,0.0002224286316951034,0.0024942562278298043,0.002267379023500799
2.9670597283903604,0.00020826003212755738,0.0020980897125745185,0.00188566447980441
3.001966313430247,0.00019380808763913042,0.0017051888596400747,0.0015075046102481617
3.036872898470133,0.0001789318565656113,0.0013203551637584782,0.0011378446700615547
3.07177948351002,0.00016334388599973035,0.0009531493273019266,0.0007865385635822016
3.1066860685499065,0.00014626752597273187,0.0006234860087480447,0.00047429313225585826
3.141592653589793,0.000238013399897114,0.000364903283929256,0.0001221296160341997
3.1764992386296798,0.00012723140114936785,0.0001986558078166442,6.887977864428898e-05
3.2114058236695664,0.00011639649991108382,0.00010400015215450702,-1.472427775479848e-05
3.246312408709453,0.00010627928055049136,5.038283540347339e-05,-5.802203075802779e-05
3.2812189937493397,9.682951087871111e-05,2.015806623818291e-05,-7.860803485810242e-05
3.3161255787892263,8.80019176211267e-05,4.4498401706425075e-06,-8.531211580290672e-05
3.351032163829113,7.975568731563751e-05,-3.896722338755275e-09,-8.1354697784289e-05
3.385938748868999,7.20540329910367e-05,-1.0646725060529207e-08,-7.350576037591796e-05
3.420845333908886,6.486381857913573e-05,-1.6064957335630477e-08,-6.617715990805407e-05
3.4557519189487724,5.8155234378458375e-05,-2.0988742127352083e-08,-5.93393278081549e-05
3.490658503988659,5.190151807693376e-05,-2.562609537371589e-08,-5.296517453384615e-05
3.5255650890285457,4.6078716897200026e-05,-3.0062051573944755e-08,-4.703035328671797e-05
3.5604716740684323,4.06654873883215e-05,-3.4339174421854684e-08,-4.151313631050978e-05
3.595378259108319,3.5642930287608674e-05,-3.848112747194425e-08,-3.639427002083279e-05
3.6302848441482056,3.0994458751810494e-05,-4.250177930177311e-08,-3.165684970614848e-05
3.6651914291880923,2.6705699146925066e-05,-4.640938005900337e-08,-2.728622250992257e-05
3.7000980142279785,2.2764424534613465e-05,-5.0208718198794476e-08,-2.326992174350453e-05
3.735004599267865,1.9160522054613677e-05,-5.390233551753123e-08,-1.959763483122348e-05
3.7699111843077517,1.5885996645459e-05,-5.7491259004253483e-08,-1.6261207837372433e-05
3.8048177693476384,1.2935015061568475e-05,-6.097546569853557e-08,-1.3254690828498382e-05
3.839724354387525,1.030399605849614e-05,-6.435419102047038e-08,-1.0574430170686534e-05
3.8746309394274117,7.991755105351519e-06,-6.762614078207576e-08,-8.219216348240625e-06
3.9095375244672983,5.999715295650663e-06,-7.078964148281852e-08,-6.190499243046495e-06
3.944444109507185,4.33220063211309e-06,-7.384274967796672e-08,-4.492687394433319e-06
3.9793506945470716,2.996834102029266e-06,-7.678333337573312e-08,-3.1335541174455845e-06
4.014257279586958,2.0050717606300457e-06,-7.960913381637321e-08,-2.12478232965902e-06
4.049163864626845,1.3729166651752596e-06,-8.231781314601487e-08,-1.4826928116247796e-06
4.084070449666731,1.1218749326661945e-06,-8.490699173446167e-08,-1.2292194230539802e-06
4.118977034706618,1.2802435923062016e-06,-8.73742777165376e-08,-1.3932227418688632e-06
4.153883619746504,1.8848614319702103e-06,-8.971729057768826e-08,-2.012275951187303e-06
4.1887902047863905,2.983518319565942e-06,-9.193368007311481e-08,-3.1351223660303758e-06
4.223696789826278,4.638320298650546e-06,-9.402114141189228e-08,-4.825107846035449e-06
4.258603374866164,6.930473190463069e-06,-9.597742737117636e-08,-7.165060081643507e-06
4.293509959906051,9.967223969543125e-06,-9.780035781878437e-08,-1.0264368806752772e-05
4.328416544945937,1.3892176440137191e-05,-9.94878269753492e-08,-1.4269507795915283e-05
4.363323129985824,1.890105184673823e-05,-1.0103780863793122e-07,-1.938011069231093e-05
4.39822971502571,2.526655845583316e-05,-1.0244835948877082e-07,-2.5874337984438593e-05
4.4331363000655974,3.337915356729815e-05,-1.0371762053559533e-07,-3.415045425917971e-05
4.468042885105484,4.3816944137435044e-05,-1.0484381665124316e-07,-4.479812683683499e-05
4.50294947014537,5.7472297876090426e-05,-1.0582525409905642e-07,-5.87275690877113e-05
4.537856055185257,7.579721645901169e-05,-1.0666031584905151e-07,-7.741982110404097e-05
4.572762640225143,0.00010132149774936259,-1.0734745438340452e-07,-0.00010345527515873323
4.60766922526503,0.00013887793769782272,-1.0788518156851859e-07,-0.0001417633816333477
4.642575810304916,0.00019899141406573667,-1.0827205501011771e-07,-0.0002030795144020615
4.6774823953448035,0.0003097503913853643,-1.0850666009150415e-07,-0.0003160539058731631
4.71238898038469,0.0005438130016245457,-1.0858758661287919e-07,-0.0005547978492436496
4.747295565424577,0.0005803705031824937,-1.0851339854890525e-07,-0.0005920864266446925
4.782202150464463,0.0006064358604375684,-1.0828259487707531e-07,-0.0006186728602411969
4.817108735504349,0.0006294172837741202,-1.0789355862820499e-07,-0.0006421135230082307
4.852015320544236,0.0006508222921971033,-1.0734449011960836e-07,-0.0006639460825311651
4.886921905584122,0.0006712681575797198,-1.0663331857786536e-07,-0.000684800154049892
4.9218284906240095,0.0006910730895490691,-1.0575758365225058e-07,-0.0007050003089237026
4.956735075663896,0.0007104220117004636,-1.0471427411046598e-07,-0.0007247351662085833
4.991641660703783,0.000729430153458478,-1.0349960424992701e-07,-0.0007441222561318974
5.026548245743669,0.0007481722657903836,-1.0210869734937369e-07,-0.0007632378198035406
5.061454830783556,0.0007666977597877069,-1.005351263100631e-07,-0.0007821322501097712
5.096361415823442,0.0007850392640489908,-9.877022743078127e-08,-0.0008008388195574013
5.1312680008633285,0.0008032177937326196,-9.680203935039445e-08,-0.0008193789516466225
5.1661745859032155,0.0008212460414822797,-9.461359302650932e-08,-0.0008377655759049518
5.201081170943102,0.0008391305645758804,-9.218001224000127e-08,-0.000856005355879638
5.235987755982989,0.0008568732917253606,-8.9463273662995e-08,-0.0008741002208335309
5.270894341022875,0.0008744725935721059,-8.640192344811081e-08,-0.0008920484473669962
5.305800926062762,0.0008919240638465286,-8.288852957740739e-08,-0.0009098454336530366
5.340707511102648,0.0009092211030553715,-7.871183050661025e-08,-0.0009274842369469855
5.375614096142535,0.0009263553639823145,-7.336788733954042e-08,-0.0009449558391493003
5.410520681182422,0.0009433170983402707,-6.511946389126648e-08,-0.0009622485597709674
5.445427266222308,0.0009600954313213181,-4.0687820064984476e-08,-0.0009793380277678095
5.480333851262195,0.0009766785826240644,1.0709401926824355e-07,-0.0009961050602572774
5.515240436302081,0.000993054047114667,5.485567518844075e-07,-0.001012366571305076
5.550147021341968,0.0010092087445980472,1.3407464228748251e-06,-0.0010280521730671333
5.585053606381854,0.001025129145630949,2.4475813454746977e-06,-0.0010431841471980933
5.619960191421741,0.0010408013785177274,3.843039237453633e-06,-0.0010577743668506283
5.654866776461628,0.0010562113213495336,5.537317045532836e-06,-0.0010717982307309915
5.689773361501515,0.0010713446820191552,7.577660422434037e-06,-0.0010851939152371041
5.724679946541401,0.0010861870684614472,1.0052498464109625e-05,-0.0010978583113665666
5.759586531581287,0.0011007240508617692,1.3077283033681812e-05,-0.0011096612488453229
5.794493116621174,0.001114941217192971,1.6763052183737798e-05,-0.0011204769893530927
5.82939970166106,0.0011288242231511864,2.121093020938728e-05,-0.001130189777404823
5.8643062867009474,0.0011423588373377959,2.652152369706994e-05,-0.001138684490387482
5.899212871740834,0.0011555309823621893,3.2792916173009745e-05,-0.0011458486858364233
5.934119456780721,0.001168326772404928,4.0121759090346086e-05,-0.0011515715487626804
5.969026041820607,0.0011807325476744187,4.86151024304571e-05,-0.00115573209619745
6.003932626860494,0.0011927349061055623,5.84031409706297e-05,-0.001158186463257044
6.03883921190038,0.0012043207325809432,6.964701117120302e-05,-0.001158760136061359
6.073745796940266,0.0012154772259002533,8.254968249098953e-05,-0.0011572370879272687
6.1086523819801535,0.0012261919236788439,9.741641626153688e-05,-0.0011532993458908839
6.14355896702004,0.0012364527253193671,0.00011531031918843361,-0.0011458714606373207
6.178465552059927,0.0012462479131697332,0.00014609460476145786,-0.0011250782666716698
6.213372137099813,0.0012555661719545876,0.00020274597275207398,-0.0010779315226416052
6.2482787221397,0.001264396606545272,0.0003007986392765154,-0.000988885899399662
