theta,z_plus,lambda_top,edge_margin
0.0,0.0019276040043453577,0.0004924439977317698,-0.001473712086700495
0.03490658503988659,0.0019422787693020597,0.0009694191995653614,-0.0010117051451227395
0.06981317007977318,0.001956062560296531,0.0018345256628494754,-0.00016065814865298634
0.10471975511965978,0.0019689383923172797,0.0028699886401934507,0.0008616714800298254
0.13962634015954636,0.001980890193367161,0.003957174361373534,0.0019366663641390298
0.17453292519943295,0.0019919028210959905,0.005061037334294152,0.0030292964567762417
0.20943951023931956,0.0020019620768821525,0.006168978590632529,0.004126977272212734
0.24434609527920614,0.002011054717271886,0.007275028892080175,0.005223753080462851
0.2792526803190927,0.002019168462661177,0.008375628000519428,0.006316076168605027
0.3141592653589793,0.002026292003078331,0.009468249434370121,0.007401431591230224
0.3490658503988659,0.002032415000894261,0.010550871332111652,0.008477808031199506
0.3839724354387525,0.002037528090251099,0.011621745529181212,0.009543466877125092
0.4188790204786391,0.002041622872956256,0.012679286692831037,0.010596831362415656
0.4537856055185257,0.002044691910536606,0.013722015094593074,0.011636429345845734
0.4886921905584123,0.0020467287120834684,0.014748525418904018,0.01266086213257888
0.5235987755982988,0.0020477277174402813,0.015757469089901166,0.013668786818112079
0.5585053606381855,0.0020476842751869697,0.01674754401685937,0.014658906056168663
0.5934119456780721,0.002046594614752472,0.017717488602760394,0.015629962095712872
0.6283185307179586,0.002044455811832177,0.018666078298506382,0.016580733370437563
0.6632251157578453,0.002041265746090142,0.01959212372627231,0.017510032665260362
0.6981317007977318,0.0020370230498732906,0.020494469795283875,0.01841670628441312
0.7330382858376184,0.0020317270463376985,0.021371995457819832,0.01929963387055538
0.767944870877505,0.0020253776749597345,0.02222361388382755,0.02015772865536862
0.8028514559173916,0.0020179754018409936,0.023048272910902806,0.020989938001024992
0.8377580409572782,0.0020095211114642022,0.02384495567473187,0.02179524414103838
0.8726646259971648,0.0020000159755435565,0.024612681355679067,0.02257266506062464
0.9075712110370514,0.0019894612932291117,0.025350505996996224,0.02332125547790253
0.9424777960769379,0.0019778582950104725,0.02605752336320727,0.024040107902296586
0.9773843811168246,0.0019652078999778983,0.0267328658160294,0.024728353758051942
1.0122909661567112,0.0019515104122666794,0.027375705191230428,0.025385164570718415
1.0471975511965976,0.0019367651369484847,0.027985253664032508,0.026009753224345053
1.0821041362364843,0.0019209698874023363,0.028560764593656265,0.026601375308505884
1.117010721276371,0.001904120343751694,0.029101533339745966,0.02715933058911924
1.1519173063162575,0.0018862092026739458,0.029606898044986084,0.02768296465825866
1.1868238913561442,0.001867225028197635,0.030076240379383973,0.028171670850622384
1.2217304763960306,0.001847150662712595,0.030508986242571465,0.028624892566604616
1.2566370614359172,0.0018259609716973712,0.030904606421150973,0.029042126230019654
1.2915436464758039,0.0018036195437259605,0.031262617198635455,0.029422925264034974
1.3264502315156905,0.0017800736846839199,0.031582580915948406,0.029766905757570808
1.361356816555577,0.001755246488295379,0.03186410648078428,0.03007375506272299
1.3962634015954636,0.0017290235887939256,0.03210684982440805,0.030343245763838244
1.4311699866353502,0.001701229492013835,0.03231051430470447,0.030575260222850356
1.4660765716752369,0.0016715814085087603,0.03247485105448665,0.030769838017807714
1.5009831567151235,0.0016395877183692344,0.0325996592742496,0.03092727980151298
1.53588974175501,0.001604281911600888,0.03268478646870919,0.031048418918876285
1.5707963267948966,0.0015633016043006625,0.03273012862661047,0.031135560990223795
1.6057029118347832,0.0015083250616099602,0.03273563034342071,0.031197138780578552
1.6406094968746698,0.0014285969981713287,0.032701284886648405,0.03124411594851365
1.6755160819145565,0.00134909748883283,0.032627134203649676,0.03125105476504019
1.710422666954443,0.0012809906505565104,0.03251326887190245,0.03120665840833481
1.7453292519943295,0.0012232756624698789,0.0323598279918455,0.031112086816126226
1.7802358370342162,0.0011736079337358737,0.032166999022499455,0.030969918930088863
1.8151424220741028,0.001130024020015897,0.031935017560209826,0.030782393059793613
1.8500490071139892,0.0010910595498866596,0.03166416706098013,0.03055128632009574
1.8849555921538759,0.0010556408939354541,0.0313547785070019,0.030278024795187736
1.9198621771937625,0.0010229752481235965,0.031007230018136017,0.02996379526504995
1.9547687622336491,0.0009924690171061188,0.03062194640926718,0.029609628011818937
1.9896753472735358,0.0009636710106369832,0.030199398694639903,0.02921645426379018
2.0245819323134224,0.0009362333064920016,0.029740103540500856,0.028785145567879016
2.059488517353309,0.000909884082607554,0.029244622667628138,0.028316540903368433
2.0943951023931953,0.000884408497169353,0.028713562205635215,0.027811465538522474
2.129301687433082,0.000859635019240033,0.028147572001313133,0.0272707442816883
2.1642082724729685,0.0008354254984982285,0.027547344883747722,0.02669521087527953
2.199114857512855,0.0008116678381881902,0.026913615889547396,0.026085714694595443
2.234021442552742,0.0007882705079458429,0.026247161452295248,0.025443125534190487
2.2689280275926285,0.0007651583760878364,0.02554879856136403,0.024768337017754435
2.303834612632515,0.0007422695011979242,0.024819383896602883,0.024062269005381
2.3387411976724017,0.000719552629974818,0.02405981294726678,0.023325869264692465
2.3736477827122884,0.0006969652208987556,0.023271019126131942,0.022560114600815213
2.4085543677521746,0.0006744718630914231,0.022453972893341806,0.021766011592988556
2.443460952792061,0.0006520429943012537,0.021609680909657668,0.020944597055470388
2.478367537831948,0.0006296538460905601,0.020739185246214847,0.020096938323202477
2.5132741228718345,0.0006072835611742676,0.019843562688818178,0.019224133456420427
2.548180707911721,0.0005849144394849234,0.01892392419122042,0.0183273114629458
2.5830872929516078,0.0005625312771676026,0.01798141455693965,0.017407632654228695
2.6179938779914944,0.0005401207670125612,0.017017212468461426,0.016466289286108615
2.652900463031381,0.000517670929966249,0.016032531045622883,0.015504506697057309
2.6878070480712677,0.0004951705448899303,0.015028619218551281,0.014523545262763553
2.722713633111154,0.0004726085363839245,0.01400676437606089,0.013524703668949287
2.7576202181510405,0.0004499732655422221,0.012968297057943765,0.012509324327090699
2.792526803190927,0.00042725164045007835,0.011914599019107814,0.011478802345848735
2.827433388230814,0.0004044279108311178,0.010847117056402433,0.010434600587354693
2.8623399732707004,0.0003814819104267686,0.00976738711145144,0.009378275562816136
2.897246558310587,0.000358386306716154,0.00867707765607317,0.008311523623222693
2.9321531433504737,0.0003351019757063231,0.007578071560702858,0.007236267545482409
2.9670597283903604,0.00031156957299339946,0.006472630780789671,0.0061548298163364035
3.001966313430247,0.0002876925844511843,0.005363756809681085,0.005070310373540877
3.036872898470133,0.0002632984078938864,0.004256072369697791,0.003987507993646027
3.07177948351002,0.00023802919215738246,0.0031583200410334137,0.0029155302650328836
3.1066860685499065,0.00021090186497954038,0.0020919193866696687,0.0018767994843905376
3.141592653589793,0.0003413161533727949,0.0011256253495290558,0.0007774828730888049
3.1764992386296798,0.00016513007273376732,0.00045801103500233786,0.0002895783608138952
3.2114058236695664,0.00014497657162731227,0.00017976032794175372,3.1884224881895205e-05
3.246312408709453,0.00012658797756784368,7.586418247249654e-05,-5.325555464670402e-05
3.2812189937493397,0.00010977216105028718,2.9684404023968553e-05,-8.228320024732436e-05
3.3161255787892263,9.436466968017859e-05,6.329818635305577e-06,-8.992214443847657e-05
3.351032163829113,8.022406749511979e-05,-5.5114851765210545e-09,-8.18340603301987e-05
3.385938748868999,6.722819907805599e-05,-1.519811617352571e-08,-6.858796117579064e-05
3.420845333908886,5.527117402585802e-05,-2.3436672106963143e-08,-5.640003417848215e-05
3.4557519189487724,4.426091791347738e-05,-3.1034828331789943e-08,-4.517717110007871e-05
3.490658503988659,3.411717294065283e-05,-3.8221813221979357e-08,-3.483773821268787e-05
3.5255650890285457,2.4769858903201853e-05,-4.5102186722495555e-08,-2.5310358267988386e-05
3.5604716740684323,1.615772571742669e-05,-5.173221630697728e-08,-1.6532612448082202e-05
3.595378259108319,8.227244353348507e-06,-5.814484098366659e-08,-8.449934081399144e-06
3.6302848441482056,9.316950586451721e-07,-6.436017788430037e-08,-1.014689137702376e-06
3.6651914291880923,-5.76957883714912e-06,-7.039065778267558e-08,5.699188179366444e-06
3.7000980142279785,-1.1911775733664995e-05,-7.624380848576712e-08,1.1835531925179228e-05
3.735004599267865,-1.752511720731772e-05,-8.192388388923814e-08,1.7443193323428482e-05
3.7699111843077517,-2.2635218845665662e-05,-8.743287611500037e-08,2.2547785969550663e-05
3.8048177693476384,-2.7263884400326763e-05,-9.27711751848166e-08,2.7171113225141947e-05
3.839724354387525,-3.152071755931985e-05,-9.79380161661426e-08,3.142277954315371e-05
3.8746309394274117,-3.544013033335227e-05,-1.0293179233143326e-07,3.533719854102084e-05
3.9095375244672983,-3.897408106749265e-05,-1.0775028060685057e-07,3.8866330786885795e-05
3.944444109507185,-4.208104640693664e-05,-1.1239080771649386e-07,4.196865559922015e-05
3.9793506945470716,-4.472363860720427e-05,-1.1685037506778707e-07,4.460678823213648e-05
4.014257279586958,-4.686704125228415e-05,-1.2112575418854432e-07,4.674591549809561e-05
4.049163864626845,-4.847790774683286e-05,-1.2521356063833755e-07,4.835269418619452e-05
4.084070449666731,-4.9523532520937e-05,-1.2911031181890726e-07,4.939442220911809e-05
4.118977034706618,-4.9971193479770826e-05,-1.328124724619329e-07,4.983838100730889e-05
4.153883619746504,-4.978762047758949e-05,-1.363164904536406e-07,4.965130398713585e-05
4.1887902047863905,-4.8938593072159184e-05,-1.3961882488068485e-07,4.8798974247278496e-05
4.223696789826278,-4.738873222354558e-05,-1.42715967619687e-07,4.7246016255925894e-05
4.258603374866164,-4.510165397028255e-05,-1.4560445938390965e-07,4.495604951089864e-05
4.293509959906051,-4.204085418650995e-05,-1.4828090081612835e-07,4.1892573285693824e-05
4.328416544945937,-3.815120054606915e-05,-1.5074195895557733e-07,3.800045858711358e-05
4.363323129985824,-3.3086848875181994e-05,-1.529843691724047e-07,3.293386450600959e-05
4.39822971502571,-2.647912970954497e-05,-1.550049324408037e-07,2.6324124777104167e-05
4.4331363000655974,-1.7873941826297635e-05,-1.568005075799123e-07,1.7717141318717724e-05
4.468042885105484,-6.586756522089675e-06,-1.5836799782640348e-07,6.428388524263272e-06
4.50294947014537,8.461893638423015e-06,-1.5970433075498163e-07,-8.790835841946458e-06
4.537856055185257,2.9075886882978887e-05,-1.608064301386304e-07,-2.9818211050777096e-05
4.572762640225143,5.8509584666825335e-05,-1.6167117772411944e-07,-5.984144753788596e-05
4.60766922526503,0.00010328718229696657,-1.6229536207952162e-07,-0.00010551522130498543
4.642575810304916,0.00017867923765914906,-1.6267561044339743e-07,-0.00018241549802277545
4.6774823953448035,0.000330734026781165,-1.6280829772097023e-07,-0.0003375115156145093
4.71238898038469,0.0006770348666098292,-1.6268942405002472e-07,-0.0006907382533660758
4.747295565424577,0.0007280928232648608,-1.6231444812676594e-07,-0.0007428169941782847
4.782202150464463,0.0007681002548662667,-1.6167805671651175e-07,-0.0007836239380203086
4.817108735504349,0.0008044134080109486,-1.6077383963074116e-07,-0.0008206624500107984
4.852015320544236,0.0008388379228707713,-1.5959382048211604e-07,-0.0008557742751486688
4.886921905584122,0.0008721422574088035,-1.581277600315914e-07,-0.0008897432303170111
4.9218284906240095,0.0009047273332475945,-1.5636208721919244e-07,-0.0009229782419997656
4.956735075663896,0.0009368256709405985,-1.54278193689616e-07,-0.0009557164625531001
4.991641660703783,0.0009685801889114974,-1.5184958399104871e-07,-0.0009881036422737185
5.026548245743669,0.001000081128980489,-1.4903684292603097e-07,-0.0010202317884030249
5.061454830783556,0.0010313854572466025,-1.457781354657221e-07,-0.0010521589445270003
5.096361415823442,0.001062527945389824,-1.4196975894099862e-07,-0.0010839204740565615
5.1312680008633285,0.0010935279194784694,-1.37422184611641e-07,-0.0011155359000526504
5.1661745859032155,0.0011243935860583136,-1.3174805639985642e-07,-0.0011470132058358797
5.201081170943102,0.0011551249244312744,-1.2403521286158554e-07,-0.0011783514581327613
5.235987755982989,0.0011857156901510825,-1.11763958088226e-07,-0.0012095417679121926
5.270894341022875,0.0012161548458939834,-8.675187376281106e-08,-0.0012405646946856259
5.305800926062762,0.0012464276111203514,-7.681455178779425e-09,-0.001271363844797937
5.340707511102648,0.0012765162507099553,5.17153687277597e-07,-0.0013015294220368769
5.375614096142535,0.0013064006804271494,2.0201232589538296e-06,-0.0013305085707767386
5.410520681182422,0.0013360589410434983,4.305822976770967e-06,-0.0013584742968875973
5.445427266222308,0.0013654675764520107,7.322487867968684e-06,-0.0013854544401130822
5.480333851262195,0.001394601940376216,1.101783431847232e-05,-0.001411476144865268
5.515240436302081,0.0014234364491299211,1.533002616218288e-05,-0.0014365751519503367
5.550147021341968,0.0014519447930219647,2.0208149125616092e-05,-0.001460775539756788
5.585053606381854,0.0014801001156304972,2.5616982721173158e-05,-0.001484085135221934
5.619960191421741,0.0015078751677953665,3.1534084194060984e-05,-0.0015064985869572129
5.654866776461628,0.0015352424414756191,3.794603648587461e-05,-0.001528001253819257
5.689773361501515,0.0015621742873831784,4.484594466136306e-05,-0.0015485718284694789
5.724679946541401,0.0015886430193941536,5.223228989313894e-05,-0.0015681835898888978
5.759586531581287,0.0016146210080617957,6.010880889654731e-05,-0.0015868046193264842
5.794493116621174,0.0016400807650448334,6.84851096994377e-05,-0.0016043972706462923
5.82939970166106,0.0016649950198766449,7.737788728845885e-05,-0.001620917032985719
5.8643062867009474,0.001689336790202349,8.681277652917012e-05,-0.0016363107494772257
5.899212871740834,0.0017130794463794926,9.682708508077779e-05,-0.0016505139502263047
5.934119456780721,0.0017361967711570579,0.00010747395140615304,-0.001663446755174046
5.969026041820607,0.0017586630150047116,0.00011882902263330735,-0.0016750072526714986
6.003932626860494,0.0017804529475507237,0.00013100189826581796,-0.0016850601082359202
6.03883921190038,0.001801541905495913,0.00014415725509691696,-0.0016934154885089145
6.073745796940266,0.001821905837297438,0.0001585573755053928,-0.001699786578537994
6.1086523819801535,0.001841521344856176,0.00017465712110548693,-0.0017036946506478127
6.14355896702004,0.0018603657223920428,0.00019334506282561124,-0.0017042279740142724
6.178465552059927,0.0018784169926504353,0.0002166694954691228,-0.0016993158370343213
6.213372137099813,0.0018956539405482688,0.0002506465098566334,-0.0016829205095026008
6.2482787221397,0.0019120561443384085,0.00031786907339400076,-0.001632428193831176
