theta,z_plus,lambda_top,edge_margin
0.0,0.0013164634816957242,0.0007575596199766806,-0.0005852331313529581
0.03490658503988659,0.00132490601913212,0.0011123410023029406,-0.00023906313721182184
0.06981317007977318,0.0013327989873303224,0.001529996122620998,0.00017054115554406913
0.10471975511965978,0.001340132600565735,0.001980026192856272,0.0006130909402792223
0.13962634015954636,0.001346897597330221,0.0024457742762463734,0.001071938726969548
0.17453292519943295,0.0013530852493003568,0.002918775935022392,0.0015386289807360282
0.20943951023931956,0.0013586873685640676,0.00339442854526924,0.002008567429333891
0.24434609527920614,0.0013636963130398553,0.003869956267986473,0.002478986028685821
0.2792526803190927,0.0013681049900044835,0.004343500292495101,0.002948033202690528
0.3141592653589793,0.0013719068576242242,0.004813694517549363,0.0034143495227726543
0.3490658503988659,0.0013750959243608335,0.005279455265907205,0.0038768574230591546
0.3839724354387525,0.0013776667460952882,0.005739870727035317,0.0043346506460181225
0.4188790204786391,0.0013796144207787902,0.0061941397108953525,0.004786933001700987
0.4537856055185257,0.001380934580380092,0.0066415361722255125,0.005232982900237819
0.4886921905584123,0.0013816233798488644,0.0070813878851114145,0.005672132037665573
0.5235987755982988,0.0013816774827540637,0.007513063232310971,0.0061037521999018265
0.5585053606381855,0.0013810940431808031,0.00793596282837361,0.006527246904329192
0.5934119456780721,0.0013798706833746896,0.008349514119288196,0.006942046022246013
0.6283185307179586,0.0013780054665031836,0.008753167868767397,0.00734760229293415
0.6632251157578453,0.0013754968637514845,0.009146395870722931,0.007743389069696417
0.6981317007977318,0.0013723437147750948,0.00952868947604001,0.008128898886969414
0.7330382858376184,0.0013685451802780942,0.009899558670029875,0.008503642586146219
0.767944870877505,0.001364100685154972,0.010258531527828314,0.008867148828970241
0.8028514559173916,0.001359009850196304,0.010605153932113413,0.009218963884913183
0.8377580409572782,0.0013532724097741241,0.010938989474207711,0.009558651616238104
0.8726646259971648,0.0013468881121332498,0.011259619483692107,0.009885793609316193
0.9075712110370514,0.0013398565978346014,0.011566643147738653,0.010199989417947359
0.9424777960769379,0.001332177250398553,0.011859677692301594,0.01050085689689507
0.9773843811168246,0.0013238490110879452,0.012138358604858974,0.01078803261354927
1.0122909661567112,0.0013148701467541662,0.012402339883694411,0.011061172334005161
1.0471975511965976,0.0013052379552767877,0.012651294302476072,0.011319951588093749
1.0821041362364843,0.0012949483866008754,0.01288491368160555,0.011564066327272656
1.117010721276371,0.0012839955474632885,0.013102909159792227,0.011793233701379673
1.1519173063162575,0.0012723710424646505,0.013305011460773843,0.0120071929974599
1.1868238913561442,0.0012600630794283784,0.013490971151200373,0.012205706810183427
1.2217304763960306,0.001247055226128579,0.01366055888652869,0.01238856255587754
1.2566370614359172,0.0012333246353943936,0.013813565642411667,0.012555574514309385
1.2915436464758039,0.0012188394301823515,0.013949802929559505,0.012706586710773507
1.3264502315156905,0.00120355470416869,0.01406910299043915,0.012841477192187086
1.361356816555577,0.0011874061216019121,0.01417131897648825,0.0129601647324543
1.3962634015954636,0.0011702990850655636,0.014256325104770238,0.013062620038003363
1.4311699866353502,0.0011520890449046308,0.014324016793204063,0.01314888596740134
1.4660765716752369,0.0011325421563477649,0.014374310773675188,0.013219117774200467
1.5009831567151235,0.0011112455729035944,0.014407145182482319,0.013273674698120652
1.53588974175501,0.0010873577131172043,0.014422479627703554,0.013313374760324006
1.5707963267948966,0.001058629115718682,0.014420295233181824,0.01334049353514877
1.6057029118347832,0.0010151622710579732,0.014400594658935194,0.01336512914245606
1.6406094968746698,0.0009494760598382726,0.01436340209789828,0.013394936516863243
1.6755160819145565,0.0008891356744863416,0.0143087632489983,0.013401844861022232
1.710422666954443,0.0008395791568391647,0.014236745266666417,0.01338037452669047
1.7453292519943295,0.000798629513009518,0.014147436686985784,0.013332834583716075
1.7802358370342162,0.0007640161048858277,0.01404094733078307,0.013261650903799525
1.8151424220741028,0.0007340684014693667,0.013917408184086495,0.01316865841458774
1.8500490071139892,0.0007076088003646597,0.013776971256502069,0.013055210280130116
1.8849555921538759,0.0006838013168003602,0.013619809418207382,0.012922332075071015
1.9198621771937625,0.0006620414435528858,0.01344611621643509,0.012770833944011146
1.9547687622336491,0.0006418831375135923,0.013256105672524051,0.012601384872260186
1.9896753472735358,0.0006229909243013448,0.013050012060866057,0.012414561318078684
2.0245819323134224,0.000605108099951057,0.012828089671385132,0.012210879409435054
2.059488517353309,0.0005880352189365753,0.01259061255757352,0.011990816634258213
2.0943951023931953,0.0005716152420571299,0.012337874272600103,0.01175482672570183
2.129301687433082,0.0005557230758558738,0.012070187596641843,0.011503350059268853
2.1642082724729685,0.0005402580648718414,0.011787884259414984,0.011236821033245706
2.199114857512855,0.0005251385076699245,0.011491314662974872,0.010955673385151549
2.234021442552742,0.000510297585173603,0.011180847611312574,0.0106603440744355
2.2689280275926285,0.0004956802911977411,0.010856870055250462,0.010351276158228766
2.303834612632515,0.0004812410851002321,0.010519786863842001,0.010028920957039764
2.3387411976724017,0.0004669420719191591,0.010170020637231311,0.00969373972387377
2.3736477827122884,0.0004527515724534243,0.009808011581198916,0.009346204977296423
2.4085543677521746,0.00043864298445930844,0.009434217471135188,0.008986801626986694
2.443460952792061,0.0004245938627116929,0.00904911374405723,0.008616028004091303
2.478367537831948,0.0004105851640692359,0.008653193773275962,0.008234396905925341
2.5132741228718345,0.000396600616412092,0.008246969404243574,0.007842436775503241
2.548180707911721,0.00038262617899344166,0.007830971866581805,0.007440693164008495
2.5830872929516078,0.00036864956734375664,0.007405753234033866,0.007029730675343234
2.6179938779914944,0.0003546598189072178,0.006971888694364238,0.006610135679078876
2.652900463031381,0.00034064687618198266,0.006529980038453943,0.00618252022474832
2.6878070480712677,0.00032660116192958024,0.00608066102453372,0.005747527839365548
2.722713633111154,0.0003125131150045333,0.0056246056995302145,0.005305842322225591
2.7576202181510405,0.0002983726433970399,0.005162541520366413,0.004858201424101432
2.792526803190927,0.0002841684288852644,0.004695270528820459,0.00440541873135749
2.827433388230814,0.00026988697649844173,0.004223704561202673,0.003948419845174262
2.8623399732707004,0.0002555112231228126,0.0037489259997746383,0.0034883045521893695
2.897246558310587,0.0002410183606815614,0.0032722973563631876,0.0030264586284679948
2.9321531433504737,0.00022637618637681164,0.0027956695183457307,0.0025647658082413828
2.9670597283903604,0.00021153648312420673,0.0023218015001477904,0.0021060342873610994
3.001966313430247,0.0001964217844714614,0.0018552593048627329,0.0016549090847018423
3.036872898470133,0.000180895169221185,0.0014044242252576932,0.0012199111526520845
3.07177948351002,0.00016467605631241154,0.000985765765385394,0.0008177961879467341
3.1066860685499065,0.00014700286614715508,0.0006294488882718796,0.0004795059648017814
3.141592653589793,0.00023859573665653138,0.00037000805469895035,0.00012664040330928836
3.1764992386296798,0.0001263514249311401,0.00020862556769804357,7.974711426828065e-05
3.2114058236695664,0.00011492637627660196,0.00011312527761098562,-4.099626191148389e-06
3.246312408709453,0.00010425763865618234,5.58871515199251e-05,-5.045563990938089e-05
3.2812189937493397,9.429195036315266e-05,2.253395806343264e-05,-7.364383130698308e-05
3.3161255787892263,8.498131034214634e-05,4.739208593877927e-06,-8.194172795511135e-05
3.351032163829113,7.628244454527592e-05,-3.9170847881100845e-09,-7.781201052096955e-05
3.385938748868999,6.815634264549869e-05,-1.1666703990542534e-08,-6.953113620239921e-05
3.420845333908886,6.0567856395284337e-05,-1.8236559628220433e-08,-6.179745008281824e-05
3.4557519189487724,5.348535239152905e-05,-2.4236481522421798e-08,-5.457929592088205e-05
3.490658503988659,4.688041328733412e-05,-2.985039470523879e-08,-4.7847871947786046e-05
3.5255650890285457,4.072758262250382e-05,-3.517335239578818e-08,-4.1577307627349686e-05
3.5604716740684323,3.5004149467773505e-05,-4.0264230463436054e-08,-3.574449668759241e-05
3.595378259108319,2.9689970030955676e-05,-4.5160811614720906e-08,-3.032893024318951e-05
3.6302848441482056,2.4767324294394827e-05,-4.9887262746557204e-08,-2.531255804302928e-05
3.6651914291880923,2.0220806682795333e-05,-5.445890680890512e-08,-2.0679681723260145e-05
3.7000980142279785,1.603725074454702e-05,-5.88853017160638e-08,-1.641688106115402e-05
3.735004599267865,1.2205688923515351e-05,-6.317219115865508e-08,-1.2512974893144312e-05
3.7699111843077517,8.717349772220344e-06,-6.732274181740913e-08,-8.95901950948216e-06
3.8048177693476384,5.5656965044488605e-06,-7.133834090486137e-08,-5.7483487754426985e-06
3.839724354387525,2.746512732777493e-06,-7.521912252164761e-08,-2.8766621099546904e-06
3.8746309394274117,2.580437624531197e-07,-7.896432399994937e-08,-3.4216896170213143e-07
3.9095375244672983,-1.8987948271795288e-06,-8.257253315260502e-08,1.8162222940269236e-06
3.944444109507185,-3.720125016606675e-06,-8.604186366829435e-08,3.6340831529383807e-06
3.9793506945470716,-5.198707973280313e-06,-8.937008189386143e-08,5.109337891386451e-06
4.014257279586958,-6.323407930153176e-06,-9.255469982420597e-08,6.23085323032897e-06
4.049163864626845,-7.078473974749626e-06,-9.559304393589648e-08,6.982880930813729e-06
4.084070449666731,-7.4425767164829514e-06,-9.848230624020439e-08,7.344094410242747e-06
4.118977034706618,-7.387508998851524e-06,-1.0121958180754868e-07,7.286289417043975e-06
4.153883619746504,-6.876417658205164e-06,-1.0380189560997995e-07,6.772615762595184e-06
4.1887902047863905,-5.861368016771836e-06,-1.0622622054036846e-07,5.755141796231468e-06
4.223696789826278,-4.279939260099807e-06,-1.0848948776215438e-07,4.171449772337652e-06
4.258603374866164,-2.0503804694040356e-06,-1.105885899800698e-07,1.9397918794239657e-06
4.293509959906051,9.354246722082874e-07,-1.1252037776965515e-07,-1.0666535434221083e-06
4.328416544945937,4.822423313234033e-06,-1.1428164865219324e-07,-5.033153428150907e-06
4.363323129985824,9.808400224206127e-06,-1.1586912816158546e-07,-1.0120437356851835e-05
4.39822971502571,1.6169267215434462e-05,-1.1727944161106787e-07,-1.660993200135422e-05
4.4331363000655974,2.4300573376752867e-05,-1.1850907463135482e-07,-2.490509391891928e-05
4.468042885105484,3.4788811766702855e-05,-1.195543196869509e-07,-3.5604142321723864e-05
4.50294947014537,4.85408489870491e-05,-1.2041120460539759e-07,-4.963207717139548e-05
4.537856055185257,6.70354196510966e-05,-1.210753974931775e-07,-6.84972034416117e-05
4.572762640225143,9.285601499819197e-05,-1.2154208000571677e-07,-9.483467737816153e-05
4.60766922526503,0.00013095665868901522,-1.2180577735956862e-07,-0.0001336975976401551
4.642575810304916,0.0001921861702625503,-1.2186012807319063e-07,-0.00019615175379587447
4.6774823953448035,0.00030576204491359574,-1.2169756800746218e-07,-0.00031199898337987516
4.71238898038469,0.0005436233657071308,-1.213088899548764e-07,-0.0005546171419112284
4.747295565424577,0.0005809014558607067,-1.2068261824922342e-07,-0.00059264016759617
4.782202150464463,0.0006079801921976473,-1.198041013348018e-07,-0.000620259600142935
4.817108735504349,0.0006319811478775313,-1.186541617738011e-07,-0.0006447394249968557
4.852015320544236,0.0006544076495268895,-1.1720702887257542e-07,-0.0006676130095462998
4.886921905584122,0.0006758794082408313,-1.1542706421042147e-07,-0.0006895124234698584
4.9218284906240095,0.0006967165826459661,-1.1326336602207682e-07,-0.0007107641776649074
4.956735075663896,0.0007171052071017724,-1.1064045092188699e-07,-0.0007315579516947297
4.991641660703783,0.000737160980797694,-1.0744122483765923e-07,-0.0007520116416384855
5.026548245743669,0.0007569586703527339,-1.0347362825902408e-07,-0.0007722013173880476
5.061454830783556,0.0007765473801235184,-9.83993743940966e-08,-0.000792176727100383
5.096361415823442,0.0007959591987904399,-9.156368550897717e-08,-0.0008119699464517576
5.1312680008633285,0.0008152144293193452,-8.152333673052044e-08,-0.0008316002412424626
5.1661745859032155,0.0008343249223755371,-6.444338496690388e-08,-0.0008510758642080147
5.201081170943102,0.0008532962938607815,-2.694331275012269e-08,-0.0008703891630507473
5.235987755982989,0.0008721294540067925,9.316459762541226e-08,-0.0008894788784893029
5.270894341022875,0.0008908216946378667,5.156167854275603e-07,-0.0009081225117451965
5.305800926062762,0.0009093674832470556,1.5089699293486739e-06,-0.000926045862982648
5.340707511102648,0.0009277590568647758,3.126424528872687e-06,-0.0009431878134731987
5.375614096142535,0.0009459868757623165,5.285444833932129e-06,-0.0009596211684436307
5.410520681182422,0.0009640399768517702,7.901321072932495e-06,-0.0009754194553158732
5.445427266222308,0.0009819062538961856,1.0909119209060727e-05,-0.0009906352597650486
5.480333851262195,0.0009995726833724667,1.4260325355723317e-05,-0.0010053038116841927
5.515240436302081,0.0010170255093336154,1.7919300948247573e-05,-0.0010194467185720402
5.550147021341968,0.001034250396886598,2.1860463584566508e-05,-0.0010330749412397636
5.585053606381854,0.0010512325613212738,2.606617425970366e-05,-0.0010461910382879957
5.619960191421741,0.0010679568781091753,3.052530001393597e-05,-0.0010587907156574229
5.654866776461628,0.0010844079776918252,3.5232359188529605e-05,-0.001070863778057132
5.689773361501515,0.0011005703280359304,4.018716674792081e-05,-0.0010823945678487283
5.724679946541401,0.0011164283072400652,4.539495228317497e-05,-0.0010933619211016916
5.759586531581287,0.0011319662679620942,5.0867005641013806e-05,-0.0011037385876803223
5.794493116621174,0.0011471685950487263,5.662202978469095e-05,-0.00111348993716501
5.82939970166106,0.0011620197574537328,6.268860437788676e-05,-0.0011225715482249207
5.8643062867009474,0.0011765043553048943,6.910963520715161e-05,-0.0011309248072038406
5.899212871740834,0.001190607162804234,7.595079840602807e-05,-0.0011384685076542907
5.934119456780721,0.0012043131675088842,8.331808206416222e-05,-0.0011450813487948995
5.969026041820607,0.0012176076064317038,9.139917789064462e-05,-0.0011505605806696934
6.003932626860494,0.0012304759993147338,0.00010057775907473258,-0.001154507760226296
6.03883921190038,0.0012429041793595745,0.0001117946587831987,-0.0011559676041635672
6.073745796940266,0.0012548783216429875,0.00012752381017783668,-0.0011524520778980105
6.1086523819801535,0.0012663849694004928,0.00015212865059549286,-0.0011395840181930097
6.14355896702004,0.0012774110583232054,0.00018991090895745155,-0.001113048370532218
6.178465552059927,0.0012879439389818967,0.0002478778170761484,-0.0010658250006853863
6.213372137099813,0.0012979713974658525,0.0003415877209693517,-0.000982343104445818
6.2482787221397,0.0013074816743014657,0.0005003887542267334,-0.0008332425535607616
