theta,z_plus,z_plus_cvec,lambda_top,edge_margin
0.0,1.0111705066470917,5.024834100087231,0.0034150435562518826,-1.0107889746107812
0.05235987755982988,1.0621241067188247,5.070285293794916,0.0040660761823414614,-1.0612444028566397
0.10471975511965977,1.1101733509847367,5.101842393316077,0.0049078122030663356,-1.1085960588346246
0.15707963267948966,1.1551866055998032,5.1194189384967626,0.005924487042449704,-1.152727678374153
0.20943951023931953,1.1970406027449219,5.122966813655292,0.007073407107392057,-1.1935583174457645
0.2617993877991494,1.2356207808911799,5.112476381241513,0.008308337618110983,-1.2310193056157424
0.3141592653589793,1.270821602273035,5.087976510881019,0.009592329472101806,-1.2650417376077523
0.36651914291880916,1.302546846829607,5.049534503883128,0.01089901488725423,-1.2955554724828415
0.41887902047863906,1.330709881984132,4.997255913648351,0.012209924877598435,-1.322492086752486
0.47123889803846897,1.3552339077515152,4.931284262790409,0.013511775307446825,-1.345787834167323
0.5235987755982988,1.376052176794004,4.8518006582004425,0.014794578319736747,-1.3653857550046493
0.5759586531581287,1.3931081891859693,4.759023305742861,0.01605046117668219,-1.381237052576845
0.6283185307179586,1.4063558618000773,4.6532069268088145,0.017272948318229175,-1.3933019810672482
0.6806784082777885,1.4157596723858277,4.534642079603975,0.01845652447788309,-1.401550426925102
0.7330382858376183,1.421294778569838,4.403654388875489,0.01959636549321858,-1.405962297412329
0.7853981633974483,1.4229471121491835,4.2606036888904315,0.020688169821482326,-1.4065277836641488
0.8377580409572781,1.4207134491435005,4.105883086032199,0.02172805149868296,-1.403247537992248
0.890117918517108,1.4146014560619857,3.939917949659488,0.02271247131004124,-1.3961327891201305
0.9424777960769379,1.4046297126310328,3.7631648433434757,0.023638192185864958,-1.3852054095830608
0.9948376736367678,1.3908277106582645,3.576110414059141,0.024502250230574348,-1.370497943559665
1.0471975511965976,1.3732358275354473,3.3792702657208755,0.02530193599333208,-1.3520535990247216
1.0995574287564276,1.351905270764591,3.1731878579348467,0.026034782525623572,-1.3299262040512614
1.1519173063162573,1.3268979864219839,2.9584334947822057,0.02669855796720988,-1.30418012241404
1.2042771838760873,1.2982865193336248,2.735603507427869,0.027291261155495572,-1.27489011773613
1.2566370614359172,1.2661538060762523,2.5053197939592815,0.027811119237619572,-1.2421411482568614
1.308996938995747,1.230592875104755,2.268229954206014,0.028256586581767003,-1.2060280671483024
1.361356816555577,1.1917064248977132,2.0250082816616906,0.02862634449589016,-1.1666551996765162
1.413716694115407,1.1496062572453354,1.7763575737607036,0.02891930140599004,-1.1241357746110814
1.4660765716752366,1.1044125658269635,1.5230102983633116,0.029134593245938714,-1.0785912102785056
1.5184364492350666,1.056253122221461,1.2657239937402691,0.029271583881537916,-1.0301502977065875
1.5707963267948966,1.0052624512256128,1.005262451225613,0.029329865442851766,-0.9789483731364379
1.6231562043547263,0.9515811177761354,0.7423641920586971,0.02930925847728437,-0.9251266026521794
1.6755160819145563,0.8953552303555355,0.47772428822908486,0.029209811865798962,-0.8688314841808031
1.7278759594743862,0.8367361969086702,0.21200932199017092,0.029031802469213067,-0.8102146030301831
1.780235837034216,0.7758806820638984,-0.05411521902181263,0.028775734492996224,-0.7494325896170939
1.832595714594046,0.7129506559942745,-0.31997047714287113,0.028442338579355436,-0.6866471693829019
1.8849555921538759,0.6481134199070228,-0.5848636648338463,0.02803257065638183,-0.622025189510362
1.9373154697137056,0.5815415292950731,-0.8480930466177959,0.02754761059749227,-0.5557385432854661
1.9896753472735356,0.5134125843264907,-1.108953476593465,0.02698886077252747,-0.48796396130694275
2.0420352248333655,0.4439088940570807,-1.366741065607336,0.026357944607518474,-0.41888267613173347
2.0943951023931953,0.37321704007841006,-1.620756931773387,0.025656705317289606,-0.3486799858813557
2.146754979953025,0.3015273693070935,-1.8703102811702292,0.02488720503951288,-0.2775447463755019
2.199114857512855,0.22903344167459377,-2.114721042540182,0.024051724689233618,-0.20566881731038394
2.251474735072685,0.15593145192207597,-2.353322207555341,0.023152764982524957,-0.13324648129531724
2.3038346126325147,0.08241963850847252,-2.5854619700484633,0.022193049267553014,-0.06047384815644492
2.356194490192345,0.008697687888382828,-2.810505719544991,0.02117552908398735,0.012451748131939373
2.4085543677521746,-0.06503386080993222,-3.0278379211266846,0.02010339380094986,0.08513725461088208
2.4609142453120043,-0.1385742076817035,-3.2368638996783963,0.01898008634808164,0.15755429402978516
2.5132741228718345,-0.21172287864559788,-3.4370115382053013,0.01780932810279831,0.2295322067483962
2.5656340004316642,-0.2842803054802432,-3.6277328948819694,0.016595157684798557,0.30087546316504177
2.617993877991494,-0.35604839831046997,-3.8085057404606557,0.015341991181841517,0.3713903894923115
2.670353755551324,-0.42683110965277615,-3.9788350158351498,0.01405471597685403,0.4408858256296302
2.722713633111154,-0.49643498913154327,-4.138254208463258,0.012738838271005345,0.5091738274025486
2.7750735106709836,-0.5646697279370804,-4.286326645718953,0.011400718091399222,0.5760704460284796
2.827433388230814,-0.6313486920426142,-4.422646702906718,0.010047949284034907,0.6413966413266492
2.8797932657906435,-0.6962894431450387,-4.546840923523264,0.00868998210329855,0.7049794252483372
2.9321531433504733,-0.7593142462507821,-4.658569049330974,0.007339148068167054,0.7666533943189492
2.9845130209103035,-0.8202505627962801,-4.757524957872537,0.006012315690196253,0.8262628784864763
3.036872898470133,-0.8789315281726989,-4.843437505180396,0.0047333605083482565,0.8836648886810472
3.089232776029963,-0.9351964125159397,-4.9160712716004245,0.00353598091896309,0.9387323934349028
3.141592653589793,-0.9888910636241937,-4.9752272088442355,0.002463935660859858,0.9913549992850536
3.193952531149623,-1.0398683308750098,-5.020743186600497,0.0015615599406532388,1.0414298908156632
3.2463124087094526,-1.0879884690302732,-5.052494437265862,0.0008511348791515515,1.0888396039094248
3.2986722862692828,-1.1331195208392042,-5.070393897595858,0.00031658126540233045,1.1334361021046064
3.3510321638291125,-1.1751376773749347,-5.074392446320756,1.161246309898461e-18,1.1751376773749347
3.4033920413889422,-1.2139276150678253,-5.064479037017188,1.1634095560392792e-18,1.2139276150678253
3.4557519189487724,-1.2493828084269196,-5.040680725768401,1.3406969464094961e-18,1.2493828084269196
3.508111796508602,-1.2814058174681935,-5.003062593379966,1.5065185592979995e-18,1.2814058174681935
3.560471674068432,-1.3099085488928663,-4.951727562136502,1.748020741380805e-18,1.3099085488928663
3.612831551628262,-1.3348124900793417,-4.886816107280625,2.3589429808283978e-18,1.3348124900793417
3.665191429188092,-1.3560489149668575,-4.808505863555071,2.3032620374564077e-18,1.3560489149668575
3.7175513067479216,-1.3735590609165602,-4.7170111272557085,2.9918356567810637e-18,1.3735590609165602
3.7699111843077517,-1.3872942756365159,-4.612582254270031,2.2468302932906886e-18,1.3872942756365159
3.8222710618675815,-1.3972161332533315,-4.4955049544820875,3.4242225026761506e-18,1.3972161332533315
3.874630939427411,-1.4032965186109883,-4.366099482646742,3.597410232859472e-18,1.4032965186109883
3.9269908169872414,-1.4055176788912802,-4.2247197252714415,3.8500627601495954e-18,1.4055176788912802
3.979350694547071,-1.4038722417073062,-4.071752182025802,2.6335043380360417e-18,1.4038722417073062
4.031710572106901,-1.3983631989719647,-3.907614838453093,3.6130862263075525e-18,1.3983631989719647
4.084070449666731,-1.3890038561739528,-3.7327559238202714,3.2525739804284206e-18,1.3890038561739528
4.13643032722656,-1.3758177473471611,-3.5476525430280925,3.762281489626e-18,1.3758177473471611
4.1887902047863905,-1.35883851721712,-3.352809163265809,3.482829344896551e-18,1.35883851721712
4.241150082346221,-1.3381097740668415,-3.148755922254323,3.611130584202283e-18,1.3381097740668415
4.29350995990605,-1.313684920177305,-2.9360467017317617,5.5889061458178604e-18,1.313684920177305
4.34586983746588,-1.285626971621595,-2.7152568717398484,6.067053781392727e-18,1.285626971621595
4.39822971502571,-1.2540083857308277,-2.4869805524951256,5.285949072702931e-18,1.2540083857308277
4.45058959258554,-1.2189109217154446,-2.2518271659433937,4.8284715635500454e-18,1.2189109217154446
4.50294947014537,-1.1804255647723987,-2.0104170187503114,4.983279945955869e-18,1.1804255647723987
4.5553093477052,-1.1386525408652581,-1.76337593474973,3.976139494322389e-18,1.1386525408652581
4.607669225265029,-1.093701430740079,-1.5113303173020831,5.728991289216847e-18,1.093701430740079
4.6600291028248595,-1.045691353072509,-1.2549076513162016,4.528061117278981e-18,1.045691353072509
4.71238898038469,-0.9947511349702589,-0.9947511349702596,4.7803267113206826e-18,0.9947511349702589
4.764748857944519,-0.9410193479520662,-0.7315478475922063,4.610354437136509e-05,0.9410654514964376
4.817108735504349,-0.8846440917930614,-0.46604429722859314,9.529725526984766e-05,0.8847393890483312
4.869468613064179,-0.8257824711404991,-0.19902766420038648,0.00014719016988158295,0.8259296613103807
4.921828490624009,-0.764599804044654,0.0687065055091635,0.0002014920949689666,0.764801296139623
4.974188368183839,-0.701268675146879,0.3363732896100402,0.0002579905750642439,0.7015266657219432
5.026548245743669,-0.6359679632063047,0.6032029286875581,0.0003165353556695138,0.6362844985619742
5.078908123303498,-0.5688819382887423,0.8684397018895409,0.0003770267121997465,0.5692589650009421
5.1312680008633285,-0.5001994704372869,1.131340286249244,0.00043940547485740917,0.5006388759121443
5.183627878423159,-0.43011334800042555,1.3911730151158486,0.0005036438566312994,0.4306169918570569
5.235987755982988,-0.35881968099006084,1.6472180456148366,0.0005697373393242284,0.3593894183293851
5.288347633542818,-0.28651735960795405,1.8987681615040917,0.0006376987243736099,0.2871550583323277
5.340707511102648,-0.21340754246232976,2.145129969616017,0.0007075557829210847,0.21411509824525085
5.393067388662478,-0.1396931564696862,2.3856253248570902,0.000779353699058673,0.14047251016874487
5.445427266222308,-0.06557839745938457,2.6195928789432577,0.0008531629555843434,0.06643156041496891
5.497787143782138,0.008731774184945803,2.8463896870565515,0.0009290928981884636,-0.007828876609312176
5.550147021341967,0.08303214496085516,3.065392830429243,0.0010073112777228348,-0.08227393011801488
5.602506898901797,0.1571177667067058,3.2760010272035958,0.0010880707407297046,-0.15650104926609623
5.654866776461628,0.23078448081820632,3.477636212601048,0.001171744520960181,-0.23030508973970074
5.707226654021457,0.30382944634001263,3.6697450747837945,0.0012588755569643323,-0.3034820591220683
5.759586531581287,0.376051669790429,3.851800536165693,0.0013502462564010886,-0.3758295785433992
5.811946409141117,0.44725253451439273,4.0233031721227785,0.0014469809059001507,-0.4471473112120357
5.864306286700947,0.5172363273996031,4.183782560532392,0.0015507007253666451,-0.5172373356564353
5.916666164260777,0.5858107608784692,4.332798556609904,0.0016637653647852747,-0.5859044277963192
5.969026041820607,0.6527874882450604,4.469942488279866,0.0017896586627084948,-0.652956192047087
6.021385919380436,0.7179826104264495,4.594838267915362,0.0019336174951866375,-0.7182029407625422
6.073745796940266,0.7812171724547903,4.707143416768138,0.0021036669939042975,-0.7814571569782504
6.126105674500097,0.8423176479878827,4.806549998832303,0.002312300319655884,-0.8425323006121904
6.178465552059926,0.901116410321689,4.892785461261339,0.0025790100350964193,-0.9012407495175576
6.230825429619756,0.9574521884291425,4.965613378807676,0.0029332557359150447,-0.9573912892585148
