theta,z_plus,z_plus_cvec,lambda_top,edge_margin
0.0,1.0119111047963465,5.026470604953279,0.0034043342609663607,-1.0115425038497692
0.05235987755982988,1.062863921378205,5.071919668799602,0.003939933786601776,-1.0621125793557378
0.10471975511965977,1.110910817707684,5.1034703848567835,0.004569308989681517,-1.1096742411711258
0.15707963267948966,1.1559201707752573,5.121036312820001,0.0052774622821245894,-1.1541104690054584
0.20943951023931953,1.1977687307801732,5.124569370081022,0.00604424153287212,-1.1953177954396417
0.2617993877991494,1.2363419615050972,5.114059965413749,0.00685001879007428,-1.2332009685995384
0.3141592653589793,1.271534357950607,5.0895370280642025,0.0076783621481764305,-1.2676705988762824
0.36651914291880916,1.3032497404969519,5.051067932334044,0.008516383890528171,-1.2986431058279144
0.41887902047863906,1.3314015249742954,4.998758318108167,0.009354138525980896,-1.3260415910232373
0.47123889803846897,1.3559129681459263,4.932751808162371,0.010183870282456688,-1.3497968367679074
0.5235987755982988,1.3767173882429646,4.853229623507946,0.010999389392884602,-1.3698481510148088
0.5759586531581287,1.393758360334617,4.760410098503589,0.011795619629473815,-1.386144015786147
0.6283185307179586,1.4069898864744768,4.65454809801843,0.01256828703367135,-1.3986425691002289
0.6806784082777885,1.416376540727591,4.535934339605239,0.01331370998101146,-1.4073119603687623
0.7330382858376183,1.4218935893468467,4.404894624507664,0.014028658221520673,-1.4121306118933665
0.7853981633974483,1.423527086513331,4.261788982488187,0.014710257992796506,-1.4130874097800745
0.8377580409572781,1.4212739461505302,4.10701073710278,0.015355927813800263,-1.4101818401751816
0.890117918517108,1.4151419903062261,3.9409855004599836,0.015963334802489897,-1.4034240814746548
0.9424777960769379,1.4051499743651275,3.7641701101856584,0.01653036483192403,-1.3928350594562988
0.9948376736367678,1.3913275887399992,3.577051527119821,0.01705510210032786,-1.3784464694058913
1.0471975511965976,1.3737154354287893,3.380145721652861,0.01753581515859324,-1.3603007665764826
1.0995574287564276,1.352364975555154,3.1739965920328936,0.017970947396407456,-1.338451123085412
1.1519173063162573,1.3273384402962434,2.9591749834849996,0.018359110618667525,-1.3129613449984645
1.2042771838760873,1.2987086921047584,2.7362779185234323,0.01869908076359436,-1.2839057374174783
1.2566370614359172,1.2665590160217532,2.50592821235929,0.01898979509700175,-1.2513688979728168
1.308996938995747,1.2309828136196257,2.2687747264905345,0.019230350410650913,-1.2154454116498334
1.361356816555577,1.1920831685250737,2.0254935392947706,0.019420001886807876,-1.176239416143841
1.413716694115407,1.1499722592148127,1.7767899909586256,0.019558162385673872,-1.1338640136067832
1.4660765716752366,1.1047706194542968,1.5234000411981174,0.019644401980180963,-1.0884405293324788
1.5184364492350666,1.0566062915985401,1.2660854766399603,0.019678447612343046,-1.0400976628609928
1.5707963267948966,1.0056139708735083,1.0056139708735086,0.019660182782758925,-0.9889706300033698
1.6231562043547263,0.9519342708145555,0.742725638814181,0.019589647214029962,-0.9352004264129692
1.6755160819145563,0.8957132210286703,0.4781138378192543,0.019467036452690392,-0.8789333242390659
1.7278759594743862,0.8371020348833793,0.21244124263494488,0.019292701394948694,-0.8203206395930808
1.780235837034216,0.7762570920264941,-0.05363086459790602,0.019067147740898037,-0.7595187155616755
1.832595714594046,0.7133400188522404,-0.31942706807774596,0.01879103540149283,-0.6966890035073042
1.8849555921538759,0.648517744697966,-0.5842570892911844,0.018465177904164673,-0.6319981200278951
1.9373154697137056,0.5819624501136536,-0.8474209590099822,0.018090541868370592,-0.565617795595624
1.9896753472735356,0.5138513747700468,-1.108214783521135,0.017668246654038502,-0.49772468224031846
2.0420352248333655,0.4443664921143705,-1.365935586095458,0.01719956432705149,-0.42850002726366215
2.0943951023931953,0.37369407791842973,-1.619885173829281,0.016685920141190753,-0.3581292400109943
2.146754979953025,0.30202420418282594,-1.8693732926687128,0.01612889381200833,-0.2868013829833661
2.199114857512855,0.22955018566490812,-2.1137203092090004,0.015530221964839695,-0.21470861425706314
2.251474735072685,0.15646799933994357,-2.3522595810117206,0.014891802291536825,-0.14204560104642658
2.3038346126325147,0.08297569052687341,-2.584339615260706,0.01421570017136592,-0.06900891742708812
2.356194490192345,0.00927277436376556,-2.8093260750394218,0.013504158836226778,0.00420356614936992
2.4085543677521746,-0.06444036211029207,-3.026603667680395,0.012759614644135699,0.07719997675442777
2.4609142453120043,-0.13796305414254842,-3.2355779347364297,0.01198471975458416,0.14994777389713257
2.5132741228718345,-0.21109494782512422,-3.435676954202018,0.011182375611651866,0.2222773234367761
2.5656340004316642,-0.28363658177212653,-3.626352960247591,0.010355782349376504,0.29399236412150304
2.617993877991494,-0.35538996096042785,-3.807083882484887,0.009508511865156971,0.36489847282558485
2.670353755551324,-0.42615912188188104,-3.9773748048183672,0.008644616329631628,0.4348037382115127
2.722713633111154,-0.4957506881566133,-4.136759342759704,0.007768789889152684,0.5035194780457659
2.7750735106709836,-0.5639744157133465,-4.284800937395237,0.006886609627882338,0.5708610253412288
2.827433388230814,-0.6306437265842026,-4.421094063821332,0.006004891365638315,0.636648617949841
2.8797932657906435,-0.6955762303044178,-4.545265351690617,0.005132199914321506,0.7007084302187393
2.9321531433504733,-0.7585942318594107,-4.6569746154745255,0.004279528785127483,0.7628737606445382
2.9845130209103035,-0.8195252250857333,-4.75591579210087,0.0034610481656690284,0.8229862732514024
3.036872898470133,-0.8782023704090318,-4.841817783741032,0.0026944909359781673,0.88089686134501
3.089232776029963,-0.934464955790419,-4.914445203681082,0.002000139290311038,0.9364650950807301
3.141592653589793,-0.988158839751227,-4.973599023401569,0.0013970312169056531,0.9895558709681327
3.193952531149623,-1.0391368753533734,-5.019117119203083,0.0008966039630093273,1.0400334793163828
3.2463124087094526,-1.087259314026859,-5.050874716942145,0.0004977968852603262,1.0877571109121194
3.2986722862692828,-1.13239418815558,-5.068784733678945,0.00018828556433275365,1.1325824737199126
3.3510321638291125,-1.174417671356074,-5.072798015280857,7.853015287910817e-19,1.174417671356074
3.4033920413889422,-1.2132144154093938,-5.062903469268711,9.804017033152967e-19,1.2132144154093938
3.4557519189487724,-1.2486778628323494,-5.039128092432074,1.0512035241311444e-18,1.2486778628323494
3.508111796508602,-1.280710534099228,-5.001536892970189,1.4160098360600525e-18,1.280710534099228
3.560471674068432,-1.3092242885469736,-4.950232707129479,1.4177992293449576e-18,1.3092242885469736
3.612831551628262,-1.3341405580139905,-4.885355910498133,1.6882995517674704e-18,1.3341405580139905
3.665191429188092,-1.3553905522736012,-4.807084024269822,1.7436499485324365e-18,1.3553905522736012
3.7175513067479216,-1.3729154353266424,-4.715631216883819,1.4051129063725847e-18,1.3729154353266424
3.7699111843077517,-1.3866664716137473,-4.6112477014590265,2.200965058996013e-18,1.3866664716137473
3.8222710618675815,-1.3966051411988838,-4.494219029321664,1.9310058409253866e-18,1.3966051411988838
3.874630939427411,-1.4027032229685366,-4.364865279612265,2.2640572847964922e-18,1.4027032229685366
3.9269908169872414,-1.404942844900446,-4.223540144338733,1.9729135562172388e-18,1.404942844900446
3.979350694547071,-1.4033165005112394,-4.070629907140829,2.2365639459265882e-18,1.4033165005112394
4.031710572106901,-1.397827030746814,-3.9065523121548633,2.42869822312811e-18,1.397827030746814
4.084070449666731,-1.388487570924981,-3.731755316222357,1.901758904012162e-18,1.388487570924981
4.13643032722656,-1.3753214630282953,-3.5467157124357276,3.487470745224041e-18,1.3753214630282953
4.1887902047863905,-1.3583621349114796,-3.3519376042256783,4.316410419643006e-18,1.3583621349114796
4.241150082346221,-1.3376529501690106,-3.147950694439182,2.7467969943222855e-18,1.3376529501690106
4.29350995990605,-1.3132470359228212,-2.935308329143846,2.6116344166455626e-18,1.3132470359228212
4.34586983746588,-1.2852071010189825,-2.7145851953042155,2.5254776439187674e-18,1.2852071010189825
4.39822971502571,-1.2536052640756403,-2.486374508850149,2.6531080494039446e-18,1.2536052640756403
4.45058959258554,-1.2185229184608293,-2.251284450038061,4.184686711929844e-18,1.2185229184608293
4.50294947014537,-1.1800506664808377,-2.0099335704412877,3.874826769683552e-18,1.1800506664808377
4.5553093477052,-1.1382883518038345,-1.762945189420515,3.596515049649053e-18,1.1382883518038345
4.607669225265029,-1.0933451994397607,-1.5109422475633068,3.03961427726581e-18,1.0933451994397607
4.6600291028248595,-1.0453400315074823,-1.25454795070764,3.987696334663517e-18,1.0453400315074823
4.71238898038469,-0.9944014718992825,-0.9944014718992833,3.3453905616484216e-18,0.9944014718992825
4.764748857944519,-0.9406680098848542,-0.7311881103899635,4.832359287992644e-05,0.9407163334777341
4.817108735504349,-0.884287796766865,-0.4656560321236888,9.949236418198538e-05,0.8843872891310469
4.869468613064179,-0.825418116053939,-0.19859641833421587,0.00015322960793634323,0.8255713456618753
4.921828490624009,-0.7642245682583337,0.06919086201961716,0.00020928717349490557,0.7644338554318286
4.974188368183839,-0.7008800903872252,0.3369173738575955,0.00026744381215800347,0.7011475341993832
5.026548245743669,-0.6355639486737336,0.603810819929099,0.0003275050387158975,0.6358914537124495
5.078908123303498,-0.5684608065501116,0.8691137059601313,0.00038930339283299955,0.5688501099429446
5.1312680008633285,-0.4997599126538771,1.1320814579865837,0.00045269906575092736,0.500212611719628
5.183627878423159,-0.4296544069115713,1.3919815004502285,0.0005175811841575982,0.43017198809572893
5.235987755982988,-0.35834071829877,1.648093305060718,0.0005838701086949078,0.35892458840746494
5.288347633542818,-0.2860180222536603,1.8997091186336719,0.0006515211165743987,0.2866695433702347
5.340707511102648,-0.2128877304064092,2.146135112333362,0.0007205298791212743,0.21360826028553048
5.393067388662478,-0.13915299328133166,2.386692776712678,0.0007909402509330947,0.13994393353226475
5.445427266222308,-0.06501820413944381,2.6207204511563056,0.0008628550812686221,0.06588105922071244
5.497787143782138,0.009311502187880318,2.84757491791593,0.000936451070560227,-0.008402985623883731
5.550147021341967,0.08363075782849547,3.0666330163106235,0.0010119991751119225,-0.08286965092686903
5.602506898901797,0.15773447780394517,3.2772932479420978,0.0010898927932733312,-0.15711778844408367
5.654866776461628,0.231418382114758,3.4789773530210844,0.0011706870800480133,-0.23094195018105426
5.707226654021457,0.3044795220675506,3.67113184359058,0.0012551544457769885,-0.3041378061879762
5.759586531581287,0.3767168086579426,3.853229483015459,0.0013443639232562435,-0.37650259516066015
5.811946409141117,0.447931540756419,4.024770703432892,0.001439796104788699,-0.4478355392738995
5.864306286700947,0.5179279308863645,4.185284954420684,0.0015435113309387452,-0.5179382033480848
5.916666164260777,0.5865136264764909,4.334331977235221,0.0016583971184304816,-0.5866147702374898
5.969026041820607,0.6535002245824263,4.471502999774564,0.0017885303313266488,-0.653672194924847
6.021385919380436,0.7187037781883454,4.596421848043503,0.0019396936914645958,-0.7189201958314458
6.073745796940266,0.7819452923118353,4.708745970402721,0.002120061729395467,-0.7821710664593753
6.126105674500097,0.8430512082412833,4.8081673713160225,0.002340955437095639,-0.8432394064289115
6.178465552059926,0.9018538743348001,4.89441345169476,0.002617236553740687,-0.9019421994040638
6.230825429619756,0.9581920019039909,4.967247753294082,0.0029663065765734445,-0.9581002713331294
