theta,z_plus,lambda_top,edge_margin
0.0,0.0013193844447130156,0.0007305335884266481,-0.0006152385451806278
0.03490658503988659,0.0013275363417656458,0.0010588098323486722,-0.00029527723625228644
0.06981317007977318,0.0013351496842898855,0.0014243425687473373,6.248989077165413e-05
0.10471975511965978,0.0013422150227665618,0.0018075420842482916,0.0004384827610263986
0.13962634015954636,0.001348723413200148,0.002198883650173068,0.0008231857687089172
0.17453292519943295,0.0013546664256625345,0.002593529864288174,0.0012117701101123886
0.20943951023931956,0.001360036151098283,0.002988741287056094,0.0016015044129358451
0.24434609527920614,0.0013648252063252976,0.0033827750421798076,0.001990653331728004
0.2792526803190927,0.0013690267371461971,0.003774398928278404,0.0023779916563892826
0.3141592653589793,0.001372634419464555,0.004162662067528668,0.0027625749596748217
0.3490658503988659,0.0013756424582758277,0.004546779101916519,0.0031436237944751752
0.3839724354387525,0.001378045584374207,0.004926068136102711,0.00352046164004102
0.4188790204786391,0.0013798390485825558,0.005299915760715439,0.0038924799311612322
0.4537856055185257,0.0013810186132714997,0.005667756496036458,0.004259117510499528
0.4886921905584123,0.0013815805408836327,0.006029060293751004,0.004619848142049699
0.5235987755982988,0.0013815215791171049,0.0063833247339182015,0.004974172723218755
0.5585053606381855,0.0013808389423462341,0.006730070058893103,0.005321614337699945
0.5934119456780721,0.0013795302887608185,0.007068835976257959,0.005661715081721924
0.6283185307179586,0.0013775936925846143,0.007399179595317683,0.005994034028881376
0.6632251157578453,0.001375027610579099,0.0077206741071750955,0.006318145944384414
0.6981317007977318,0.0013718308418403846,0.008032907962316834,0.006633640503639642
0.7330382858376184,0.0013680024796402335,0.008335484386516951,0.006940121857283913
0.767944870877505,0.0013635418537260365,0.008628021129704934,0.007237208438904377
0.8028514559173916,0.001358448461050539,0.008910150376614911,0.007524532946343362
0.8377580409572782,0.001352721882309006,0.009181518770192763,0.007801742450237578
0.8726646259971648,0.0013463616808601976,0.009441787513397061,0.008068498598919659
0.9075712110370514,0.0013393672795112765,0.009690632524904354,0.008324477899802852
0.9424777960769379,0.0013317378091264886,0.009927744630994158,0.00856937206568514
0.9773843811168246,0.0013234719208796415,0.010152829780596166,0.008802888421298932
1.0122909661567112,0.0013145675509091189,0.010365609273805844,0.009024750371878543
1.0471975511965976,0.001305021621675384,0.010565819996554593,0.009234697942445701
1.0821041362364843,0.0012948296576962431,0.010753214655846591,0.009432488404996423
1.117010721276371,0.001283985283272169,0.01092756201124316,0.009617897022305547
1.1519173063162575,0.0012724795541439028,0.011088647099218698,0.009790717953991918
1.1868238913561442,0.001260300049928994,0.011236271447723335,0.009950765396795761
1.2217304763960306,0.0012474296126892092,0.011370253278828873,0.01009787507388588
1.2566370614359172,0.0012338445458033916,0.011490427697753488,0.010231906261034028
1.2915436464758039,0.0012195119598995001,0.011596646866887748,0.010352744667790258
1.3264502315156905,0.0012043857127148766,0.011688780163704714,0.01046030673673554
1.361356816555577,0.001188399910074683,0.011766714321645898,0.010554546413369722
1.3962634015954636,0.001171457902658104,0.011830353553246468,0.010635466492535202
1.4311699866353502,0.0011534122756324734,0.011879619654905568,0.010703139133760446
1.4660765716752369,0.0011340248412742518,0.011914452092829098,0.010757746754729361
1.5009831567151235,0.0011128753283056979,0.011934808069777376,0.010799675234905565
1.53588974175501,0.0010891067653885417,0.011940662572343472,0.01082977367164716
1.5707963267948966,0.0010604239219581587,0.011932008398572558,0.010850375998175236
1.6057029118347832,0.0010166987156593448,0.01190885616581263,0.010871823475840097
1.6406094968746698,0.000950512783022674,0.011871234298761867,0.01090171126007874
1.6755160819145565,0.0008897683564842159,0.01181918899775376,0.01091162527413986
1.710422666954443,0.0008398925347984601,0.011752784187396666,0.010896093801902236
1.7453292519943295,0.0007986965864303815,0.011672101445763961,0.010857430927604972
1.7802358370342162,0.0007638973518242421,0.01157723991441591,0.010798064615555183
1.8151424220741028,0.0007338134126126259,0.011468316189628281,0.010719826508763403
1.8500490071139892,0.0007072584845758228,0.01134546419530795,0.010624060541040611
1.8849555921538759,0.0006833898323606295,0.011208835038197678,0.010511777409189836
1.9198621771937625,0.0006615977040436938,0.011058596846115883,0.010383767187991316
1.9547687622336491,0.000641431943405005,0.010894934590149244,0.010240674007876139
1.9896753472735358,0.0006225538058213298,0.010718049891926835,0.010083045009989078
2.0245819323134224,0.0006047039466019042,0.010528160817366038,0.009911362791832095
2.059488517353309,0.0005876807532459148,0.010325501658610181,0.009726067290299348
2.0943951023931953,0.0005713253795123866,0.010110322706299801,0.009527570819197168
2.129301687433082,0.0005555112011123427,0.009882890014865454,0.009316268589730866
2.1642082724729685,0.0005401362457793885,0.00964348516424669,0.009092546193551713
2.199114857512855,0.0005251176626102641,0.009392405022394117,0.008856785006531647
2.234021442552742,0.0005103876149215614,0.009129961514191078,0.008609366146971085
2.2689280275926285,0.0004958901834788132,0.008856481404175044,0.008350673417026654
2.303834612632515,0.0004815789978327866,0.008572306102842141,0.0080810955250527
2.3387411976724017,0.00046741539953885073,0.008277791509677338,0.0078010278021477105
2.3736477827122884,0.0004533669985369151,0.007973307910811016,0.007510873572303362
2.4085543677521746,0.0004394065229665125,0.007659239956045569,0.007211045302619726
2.443460952792061,0.0004255108894592644,0.0073359867499871185,0.006901965642738669
2.478367537831948,0.0004116604394653619,0.007003962106859815,0.006584068458605146
2.5132741228718345,0.00039783829997046375,0.006663595041028739,0.006257799975058866
2.548180707911721,0.0003840298356560516,0.006315330599893738,0.0059236201675245655
2.5830872929516078,0.0003702221651314019,0.005959631200428505,0.005582004591994476
2.6179938779914944,0.00035640371682935264,0.005596978718824759,0.00523344692765882
2.652900463031381,0.0003425638006021406,0.005227877728904668,0.004878462652290485
2.6878070480712677,0.00032869216859343273,0.004852860534548115,0.004517594522582814
2.722713633111154,0.00031477853252736583,0.0044724950815724866,0.004151420978394573
2.7576202181510405,0.00030081199189504256,0.004087397639753422,0.003780569408020478
2.792526803190927,0.0002867803041247876,0.0036982536804671196,0.003405737770259836
2.827433388230814,0.0002726688845093674,0.0033058534390601954,0.003027731176860641
2.8623399732707004,0.00025845934087247944,0.0029111550920145864,0.002647526564324657
2.897246558310587,0.00024412718136115506,0.0025154028222666982,0.00226639309727832
2.9321531433504737,0.0002296379745831558,0.002120361011255202,0.001886130277180383
2.9670597283903604,0.0002149403944828727,0.001728811055070984,0.0015095718526984539
3.001966313430247,0.0001999523360758058,0.0013456777914809762,0.0011417264086836542
3.036872898470133,0.00018452928094472168,0.0009806665368291864,0.0007924466702655703
3.07177948351002,0.00016837625468247273,0.0006536142130164197,0.0004818704332402975
3.1066860685499065,0.00015069569718772347,0.00039702508140132374,0.0002433154702698458
3.141592653589793,0.0002450981737811576,0.00023038587417647993,-1.9614263080300836e-05
3.1764992386296798,0.00013019622508221083,0.00013225516879300007,-5.44980790854972e-07
3.2114058236695664,0.00011887066684905265,7.326661548251651e-05,-4.798146470351719e-05
3.246312408709453,0.0001083121467347174,3.737277561302992e-05,-7.310561405638183e-05
3.2812189937493397,9.846473546819685e-05,1.5849534747278156e-05,-8.458449543028263e-05
3.3161255787892263,8.927821549886111e-05,3.5824182741650323e-06,-8.74813615346733e-05
3.351032163829113,8.070747155182825e-05,-3.264535609154532e-09,-8.232488551847397e-05
3.385938748868999,7.271196482571282e-05,-9.420348320947338e-09,-7.417562447054803e-05
3.420845333908886,6.525527965990289e-05,-1.4731973203181746e-08,-6.657511722630412e-05
3.4557519189487724,5.8304733455124844e-05,-1.967881918332331e-08,-5.9490506943410665e-05
3.490658503988659,5.18310422940735e-05,-2.439242882194209e-08,-5.289205556877691e-05
3.5255650890285457,4.580803614510933e-05,-2.8931225136868045e-08,-4.6753128093148384e-05
3.5604716740684323,4.021241879878033e-05,-3.332602854397961e-08,-4.104999320329991e-05
3.595378259108319,3.502356883543849e-05,-3.75944870536275e-08,-3.576163469920088e-05
3.6302848441482056,3.0223379000725933e-05,-4.174704429076551e-08,-3.0869593625031223e-05
3.6651914291880923,2.5796132422636897e-05,-4.578983233565872e-08,-2.635784490342529e-05
3.7000980142279785,2.1728415191448658e-05,-4.9726234501863474e-08,-2.2212709729779494e-05
3.735004599267865,1.8009066002469396e-05,-5.355779952004562e-08,-1.842280512203883e-05
3.7699111843077517,1.4629164905668986e-05,-5.728481006821871e-08,-1.4979033013850585e-05
3.8048177693476384,1.1582064812245294e-05,-6.090665397832472e-08,-1.1874612762468525e-05
3.839724354387525,8.86347140607114e-06,-6.4422076426383e-08,-9.105162910618946e-06
3.8746309394274117,6.47157967862984e-06,-6.782935702614667e-08,-6.668840629228583e-06
3.9095375244672983,4.407278707330987e-06,-7.112643771865906e-08,-4.566550719196266e-06
3.944444109507185,2.674440904302801e-06,-7.431101737109149e-08,-2.8022407397599483e-06
3.9793506945470716,1.2803183324633461e-06,-7.738062321693819e-08,-1.3833053223295513e-06
4.014257279586958,2.360776582789216e-07,-8.03326657921576e-08,-3.2113187723665767e-07
4.049163864626845,-4.4248182172421255e-07,-8.316448185008031e-08,3.5931733987413223e-07
4.084070449666731,-7.33963856385688e-07,-8.587336835257403e-08,6.48090488033114e-07
4.118977034706618,-6.100734498322961e-07,-8.845660971849008e-08,5.21616840113806e-07
4.153883619746504,-3.3844052826094635e-08,-9.091149989727765e-08,-5.706744707118302e-08
4.1887902047863905,1.0428054877713555e-06,-9.323536041145853e-08,-1.1568969579382412e-06
4.223696789826278,2.6824875773056123e-06,-9.542555521431437e-08,-2.8315628840660387e-06
4.258603374866164,4.967208882299279e-06,-9.74795029976613e-08,-5.164032562942927e-06
4.293509959906051,8.00543605000019e-06,-9.939468742024522e-08,-8.26493945842044e-06
4.328416544945937,1.1942610724412975e-05,-1.0116866560883879e-07,-1.2282631604510074e-05
4.363323129985824,1.6977239425766783e-05,-1.0279907517680201e-07,-1.7419583289458922e-05
4.39822971502571,2.3386327238751294e-05,-1.0428363991492712e-07,-2.395833742344125e-05
4.4331363000655974,3.1567149689060766e-05,-1.0562017421994587e-07,-3.2304112857061927e-05
4.468042885105484,4.210905966267501e-05,-1.0680658623129019e-07,-4.30580474421598e-05
4.50294947014537,5.592393726907666e-05,-1.0784087954644732e-07,-5.715025689400464e-05
4.537856055185257,7.449993977555068e-05,-1.0872115327004233e-07,-7.609865972433174e-05
4.572762640225143,0.00010043991662657311,-1.094456000193312e-07,-0.00010255816055912391
4.60766922526503,0.00013874270912321714,-1.1001250136356471e-07,-0.00014162757580704507
4.642575810304916,0.00020038024653692914,-1.1042021999852097e-07,-0.00020449827168766624
4.6774823953448035,0.0003150128639724075,-1.1066718775720813e-07,-0.00032142378843961285
4.71238898038469,0.000561416902001952,-1.1075188830999787e-07,-0.000572755991930301
4.747295565424577,0.0005992595676974965,-1.1067283309152536e-07,-0.000611355431884538
4.782202150464463,0.0006263016141304753,-1.1042852856383772e-07,-0.0006389380749416487
4.817108735504349,0.0006501585401441821,-1.1001743231946078e-07,-0.0006632717283793851
4.852015320544236,0.0006723871005797172,-1.0943789463855956e-07,-0.0006859442804859501
4.886921905584122,0.000693625242033241,-1.0868808076905339e-07,-0.0007076064349546749
4.9218284906240095,0.0007142019201948439,-1.0776586713553032e-07,-0.0007285937244658762
4.956735075663896,0.0007343083045595475,-1.0666870144990687e-07,-0.0007491011393521884
4.991641660703783,0.0007540634929526895,-1.0539341155315525e-07,-0.0007692501562232964
5.026548245743669,0.0007735447140892599,-1.039359394135308e-07,-0.0007891195443104586
5.061454830783556,0.0007928029817025388,-1.0229096262450705e-07,-0.0008087613322992142
5.096361415823442,0.0008118719451166882,-1.004513412910926e-07,-0.000828209835360313
5.1312680008633285,0.0008307732362385563,-9.840728402130918e-08,-0.0008474871082473488
5.1661745859032155,0.0008495198742108236,-9.61450430820107e-08,-0.0008666064167381221
5.201081170943102,0.0008681185283987872,-9.364478120131415e-08,-0.0008855745437479643
5.235987755982989,0.0008865710775972234,-9.08768934669705e-08,-0.0009043933760426348
5.270894341022875,0.0009048757178666325,-8.779523216071172e-08,-0.0009230610274561259
5.305800926062762,0.000923027771020211,-8.432352197136898e-08,-0.0009415726499625866
5.340707511102648,0.0009410202887915084,-8.032481808379946e-08,-0.0009599210193854224
5.375614096142535,0.0009588445140162765,-7.55198365706999e-08,-0.0009780969241331727
5.410520681182422,0.0009764902395282632,-6.008321934608919e-08,-0.0009960801275381746
5.445427266222308,0.0009939460924419691,1.2783218551430222e-07,-0.0010136971821052942
5.480333851262195,0.0010111997630470122,6.846641328434068e-07,-0.001030739094175109
5.515240436302081,0.0010282381919274849,1.6884576253650995e-06,-0.0010471144981406696
5.550147021341968,0.0010450477251124318,3.1128499643758358e-06,-0.0010628358296503047
5.585053606381854,0.0010616142444303915,4.964399616219493e-06,-0.0010778821297027798
5.619960191421741,0.001077923278387937,7.257763087587707e-06,-0.001092223980868108
5.654866776461628,0.0010939600975674241,1.0017876306130128e-05,-0.0011058214232126426
5.689773361501515,0.0011097097975784165,1.3294063753047914e-05,-0.0011186099297769369
5.724679946541401,0.0011251573718911673,1.7173508609860723e-05,-0.00113048701071913
5.759586531581287,0.0011402877763553214,2.1792904000384665e-05,-0.0011413006278820433
5.794493116621174,0.0011550859868118047,2.734324576879729e-05,-0.0011508444607792436
5.82939970166106,0.00116953705090545,3.40552595216271e-05,-0.0011588725324019318
5.8643062867009474,0.0011836261349752282,4.2157728626701295e-05,-0.0011651409290480315
5.899212871740834,0.0011973385667201836,5.18282072782442e-05,-0.0011694571307763431
5.934119456780721,0.0012106598741994257,6.317288805423521e-05,-0.001171700183629179
5.969026041820607,0.0012235758216143128,7.624528292077318e-05,-0.001171802055125826
6.003932626860494,0.0012360724422333515,9.108418547284933e-05,-0.0011697097056051692
6.03883921190038,0.0012481360687500776,0.0001077632288487094,-0.0011653355612763698
6.073745796940266,0.001259753361307368,0.0001264900032443547,-0.0011584584252891609
6.1086523819801535,0.0012709113333752796,0.00014793752447213874,-0.0011483920355706465
6.14355896702004,0.0012815973756312906,0.00017481564057287985,-0.0011324136825710365
6.178465552059927,0.0012917992779599892,0.00021902488502821611,-0.001098610378490973
6.213372137099813,0.0013015052496623417,0.0003078308348569615,-0.001019704519798627
6.2482787221397,0.0013107039379416324,0.00047257962908979777,-0.0008643383876106674
