theta,z_plus,z_plus_cvec,lambda_top,edge_margin
0.0,1.0111049671137469,5.02468921819189,0.0028485682488638073,-1.0112897137662245
0.05235987755982988,1.0620586365505287,5.070140600504433,0.003463916075986677,-1.0617808963841937
0.10471975511965977,1.110108088680859,5.101698265295228,0.004247161262226623,-1.109191251684675
0.15707963267948966,1.155121688700816,5.119275750652704,0.005171152247092548,-1.153415901519826
0.20943951023931953,1.1969761671964156,5.122824937966495,0.006193281352163531,-1.1943738143458413
0.2617993877991494,1.2355569603981187,5.11233618558437,0.00727499502058091,-1.2319886362587322
0.3141592653589793,1.2707585276397433,5.087838357852389,0.008388000803945351,-1.2661828024187172
0.36651914291880916,1.3024846452802508,5.049398749616209,0.009512784491499383,-1.2968793147245923
0.41887902047863906,1.3306486764574759,4.997122906617899,0.010635747867394265,-1.3240048746194542
0.47123889803846897,1.355173816162442,4.931154342601527,0.01174701211857864,-1.3474923254923508
0.5235987755982988,1.3759933112526583,4.851674154352543,0.012839025254474178,-1.3672822659319421
0.5759586531581287,1.3930506551633313,4.758900536356781,0.01390572562732005,-1.383324081501501
0.6283185307179586,1.4062997572262947,4.653088197299957,0.014942042816328532,-1.3955766136816452
0.6806784082777885,1.4157050866646357,4.534527681277051,0.015943596450049422,-1.4040086054745802
0.7330382858376183,1.4212417914889393,4.4035445974058955,0.016906511345384206,-1.408599005518022
0.7853981633974483,1.4228957926626293,4.260498762641868,0.01782730205839174,-1.4093371779822255
0.8377580409572781,1.4206638539981944,4.10578326413714,0.018702799709555115,-1.406223045850634
0.890117918517108,1.414553628237108,3.9398234497543556,0.019530105109806854,-1.3992671840120126
0.9424777960769379,1.404583679557629,3.763075858796686,0.02030655858121836,-1.3884908720150835
0.9948376736367678,1.3907834821887013,3.5760271104461254,0.021029720563037493,-1.37392611207223
1.0471975511965976,1.3731933936425726,3.379192776165816,0.021697359285027508,-1.3556156145384728
1.0995574287564276,1.3518645989739664,3.173116276721207,0.022307443117419667,-1.3336127496534687
1.1519173063162573,1.3268590190256369,2.958367868277675,0.022858136028352252,-1.3079814600543616
1.2042771838760873,1.2982491705102557,2.7355438207863227,0.023347795098929428,-1.278796122922857
1.2566370614359172,1.2661179591592202,2.505265951132989,0.02377496938092566,-1.2461413436557722
1.308996938995747,1.2305583803949072,2.2681817474433648,0.024138399602416302,-1.2101116559336755
1.361356816555577,1.191673098590136,2.024965345185693,0.02443701837428322,-1.1708110995116232
1.413716694115407,1.149573882166564,1.7763193166641535,0.024669950651490226,-1.1283526531615735
1.4660765716752366,1.1043808946609999,1.5229758205403847,0.024836514273447165,-1.0828575230715356
1.5184364492350666,1.0562218836327069,1.2656920187977498,0.02493622045804569,-1.0344543288255592
1.5707963267948966,1.005231358735499,1.0052313587354993,0.02496877416079916,-0.9832782786509064
1.6231562043547263,0.9515498805517515,0.742332220175137,0.02493407423846731,-0.9294704559549395
1.6755160819145563,0.8953235645086719,0.47768982687258543,0.02483221337869425,-0.8731773218235037
1.7278759594743862,0.8367038357599392,0.21197110727542462,0.024663477775776647,-0.8145504694914425
1.780235837034216,0.7758473841684527,-0.05415807835962091,0.02442834654943235,-0.7537465797715257
1.832595714594046,0.7129162103653939,-0.32001856744601376,0.024127490919826113,-0.6909274680766639
1.8849555921538759,0.6480776485142643,-0.5849173501988801,0.023761773169549576,-0.6262601082902576
1.9373154697137056,0.5815042873407045,-0.8481525347097684,0.02333224544331252,-0.5599165547594142
1.9896753472735356,0.5133737589658409,-1.1090188641845078,0.022840148460716796,-0.49207373178202163
2.0420352248333655,0.4438684021913512,-1.3668123686700828,0.022286910249259245,-0.422913097148666
2.0943951023931953,0.3731748257124377,-1.620834105269272,0.021674145047347885,-0.35262020514222714
2.146754979953025,0.30148340080831276,-1.8703932322542254,0.02100365258607663,-0.28138419842466106
2.199114857512855,0.22898770913536795,-2.1148096395941387,0.020277418042072694,-0.20939725422070135
2.251474735072685,0.15588396472936736,-2.353416286560107,0.019497613074732224,-0.13685400354882324
2.3038346126325147,0.0823704231605817,-2.585561339235917,0.018666598539858248,-0.0639509358902052
2.356194490192345,0.008646786060455448,-2.8106101629215305,0.01778692974073976,0.009114203322102946
2.4085543677521746,-0.06508639397001995,-3.0279472012453628,0.016861365490609265,0.08194775946062921
2.4609142453120043,-0.13862830505427676,-3.236977759904222,0.015892882906807886,0.15452118796108463
2.5132741228718345,-0.2117784624663967,-3.437129704634883,0.014884700889881142,0.22666316335627784
2.5656340004316642,-0.2843372885221506,-3.627855078025423,0.01384031692668478,0.2981776054488354
2.617993877991494,-0.35610668494514475,-3.8086316367591153,0.012763564668294671,0.3688702496134394
2.670353755551324,-0.42689059681417557,-3.9789643090642812,0.011658704523896304,0.43854930133807185
2.722713633111154,-0.4964955671999328,-4.1383865710578185,0.01053056783355235,0.5070261350334851
2.7750735106709836,-0.5647312815590376,-4.286461740042882,0.009384789848477824,0.5741160714075154
2.827433388230814,-0.6314111008998291,-4.42278418248596,0.008228192655604604,0.6396392935554337
2.8797932657906435,-0.6963525826824514,-4.546980434253413,0.007069423770521988,0.7034220064529734
2.9321531433504733,-0.7593779883727222,-4.65871023066819,0.0059200253180989,0.7652980136908211
2.9845130209103035,-0.8203147765377609,-4.757667444013563,0.0047961793551841506,0.825110955892945
3.036872898470133,-0.878996080351829,-4.843580926235736,0.0037212743590980014,0.8827173547109269
3.089232776029963,-0.9352611683724829,-4.916215254763282,0.0027284888403259137,0.9379896572128088
3.141592653589793,-0.9889558874486446,-4.975371379557062,0.0018594200730394023,0.990815307521684
3.193952531149623,-1.0399330866320664,-5.020887169720257,0.0011511703689009748,1.0410842570009673
3.2463124087094526,-1.0880530209803232,-5.052637858228879,0.0006140023037855174,1.0886670232841087
3.2986722862692828,-1.1331837341613409,-5.070536383582923,0.00022426533842100093,1.133407999499762
3.3510321638291125,-1.1752014187951096,-5.074533627423361,7.75479891986405e-19,1.1752014187951096
3.4033920413889422,-1.2139907534959946,-5.064618547405969,1.614639914439407e-18,1.2139907534959946
3.4557519189487724,-1.2494452156075107,-5.040818204865603,1.1528521627534293e-18,1.2494452156075107
3.508111796508602,-1.2814673686488858,-5.0031976870384955,1.2357154055244523e-18,1.2814673686488858
3.560471674068432,-1.309969123517587,-4.951859923829567,2.215169940077216e-18,1.309969123517587
3.612831551628262,-1.3348719725125677,-4.886945399307692,1.5461216620669186e-18,1.3348719725125677
3.665191429188092,-1.356107195257834,-4.8086317582724805,2.150090340167294e-18,1.356107195257834
3.7175513067479216,-1.3736160356139173,-4.717133308343861,1.8439504349989602e-18,1.3736160356139173
3.7699111843077517,-1.3873498486660794,-4.612700418054125,2.4679951246702297e-18,1.3873498486660794
3.8222710618675815,-1.3972702168746687,-4.495618811330541,1.996526523832214e-18,1.3972702168746687
3.874630939427411,-1.4033490344714603,-4.366208758481878,2.327285967271365e-18,1.4033490344714603
3.9269908169872414,-1.4055685591999383,-4.224824163242152,2.8744290469732133e-18,1.4055685591999383
3.979350694547071,-1.4039214305547185,-4.071851544414518,2.651117642389963e-18,1.4039214305547185
4.031710572106901,-1.3984106538254306,-3.907708908923507,2.4254578243641874e-18,1.3984106538254306
4.084070449666731,-1.3890495495795754,-3.7328445101648002,2.5347628396669705e-18,1.3890495495795754
4.13643032722656,-1.3758616688691754,-3.5477354806563155,3.272009967271588e-18,1.3758616688691754
4.1887902047863905,-1.3588806756376672,-3.3528863198062266,2.7788431179472817e-18,1.3588806756376672
4.241150082346221,-1.3381501998512753,-3.1488272038539975,3.3588155484922308e-18,1.3381501998512753
4.29350995990605,-1.313723668174143,-2.936112061985534,3.726676793384848e-18,1.313723668174143
4.34586983746588,-1.2856641239031161,-2.7153163247490255,3.3082535612221774e-18,1.2856641239031161
4.39822971502571,-1.2540440543804843,-2.4870341924648613,4.571236052239873e-18,1.2540440543804843
4.45058959258554,-1.2189452512267562,-2.2518751970740705,2.5969213812370985e-18,1.2189452512267562
4.50294947014537,-1.1804587335512686,-2.0104598007195946,2.9416548402023172e-18,1.1804587335512686
4.5553093477052,-1.1386847611654822,-1.7634140490908914,3.7522890184648006e-18,1.1386847611654822
4.607669225265029,-1.0937329462960816,-1.5113646522575421,3.2248338736479635e-18,1.0937329462960816
4.6600291028248595,-1.0457224338428974,-1.2549394740383475,3.015729514125521e-18,1.0457224338428974
4.71238898038469,-0.994782068860517,-0.9947820688605178,4.828070084335775e-18,0.994782068860517
4.764748857944519,-0.9410504301000869,-0.7315796734101805,4.329215414395657e-05,0.9410937222542309
4.817108735504349,-0.8846756127313931,-0.4660786488251664,8.915663453407136e-05,0.8847647693659272
4.869468613064179,-0.8258147055376694,-0.1990658212516402,0.000137174443742147,0.8259518799814116
4.921828490624009,-0.7646330015509126,0.06866364599020364,0.00018698995361842122,0.7648199915045311
4.974188368183839,-0.701303054220834,0.33632514159758015,0.00023829396311124905,0.7015413481839453
5.026548245743669,-0.6360037080165313,0.6031491308659139,0.00029081423800635174,0.6362945222545376
5.078908123303498,-0.5689191981960454,0.8683800499889596,0.00034431014032036456,0.5692635083363657
5.1312680008633285,-0.5002383613020709,1.1312746867919636,0.0003985698329607609,0.5006369311350316
5.183627878423159,-0.4301539545716743,1.3911014551235745,0.0004534093925222226,0.4306073639641965
5.235987755982988,-0.35886205978909996,1.647140572816022,0.0005086735997913201,0.3593707333888913
5.288347633542818,-0.2865615419108732,1.898684871183894,0.000564238452077534,0.2871257803629507
5.340707511102648,-0.21345353714906132,2.145040995646176,0.0006200156656104266,0.21407355281467175
5.393067388662478,-0.139740952625859,2.3855308333792187,0.0006759596696959362,0.14041691229555495
5.445427266222308,-0.06562796669215082,2.6194930637608884,0.000732077877179768,0.06636004456933059
5.497787143782138,0.008680475713171635,2.8462847661451396,0.0007884453807375352,-0.007918071759573615
5.550147021341967,0.08297917475552657,3.065283043188813,0.0008452257003900823,-0.08238288657940307
5.602506898901797,0.15706319438754546,3.275886632211388,0.0009026998198677667,-0.15663168415084033
5.654866776461628,0.23072838675409174,3.477517485704585,0.0009613065300128111,-0.23045926538434122
5.707226654021457,0.3037719204399433,3.6696223074276793,0.001021698138845319,-0.30366153806241775
5.759586531581287,0.37599281042205107,3.851674033879746,0.0010848172400016991,-0.37603597161331553
5.811946409141117,0.4471924475257972,4.023173253121829,0.0011520034369791189,-0.44738202143139544
5.864306286700947,0.5171751252241448,4.183649554393205,0.0012251460252786202,-0.5175015045745386
5.916666164260777,0.5857485617059254,4.33266280300117,0.0013069139446660787,-0.5861988934463771
5.969026041820607,0.6527244152454913,4.469804335728344,0.0014011239529817339,-0.653281464538246
6.021385919380436,0.7179187910156427,4.594698072596333,0.0015133583342397056,-0.7185591890544499
6.073745796940266,0.7811527375922191,4.707001541311897,0.0016520165304494143,-0.7818441792745464
6.126105674500097,0.8422527314997387,4.806406811140979,0.001830054087816872,-0.842949435606421
6.178465552059926,0.9010511482428327,4.892641333332143,0.0020675555192974375,-0.9016867461682637
6.230825429619756,0.9573867183587865,4.9654686855599985,0.0023943324657924076,-0.9578645460480705
