theta,z_plus,lambda_top,edge_margin
0.0,0.0016504385877262843,0.0005084896811789319,-0.0011749576783018781
0.03490658503988659,0.0016625034876899204,0.0009148668116449458,-0.000780886745798773
0.06981317007977318,0.0016738248278084173,0.0015874797585439648,-0.00011982156582062082
0.10471975511965978,0.0016843886437113036,0.0023884840810523052,0.0006704076644667755
0.13962634015954636,0.0016941817216965687,0.003234591499132728,0.001506526143002228
0.17453292519943295,0.0017031916122390888,0.004096917868291453,0.002359662423807582
0.20943951023931956,0.0017114066413212072,0.004964234898146853,0.0032186001239992218
0.24434609527920614,0.0017188159195068247,0.005831105745712136,0.004077913507815174
0.2792526803190927,0.0017254093486595093,0.00669431765004522,0.0049344001144125205
0.3141592653589793,0.0017311776261815543,0.0075516429285138135,0.005785841749808628
0.3490658503988659,0.0017361122466237116,0.008401343686031727,0.00663050919447554
0.3839724354387525,0.0017402055004833521,0.009241950099287369,0.00746694048879435
0.4188790204786391,0.001743450469970736,0.010072151964768484,0.008293832485398334
0.4537856055185257,0.0017458410214770976,0.01089074184959881,0.009109984007692171
0.4886921905584123,0.0017473717944222098,0.011696583654932181,0.009914264424621528
0.5235987755982988,0.001748038186090094,0.012488594521163309,0.010705595571351412
0.5585053606381855,0.0017478363319758602,0.013265734120644237,0.01148294106202886
0.5934119456780721,0.001746763081059391,0.014026998227699528,0.01224529988501895
0.6283185307179586,0.001744815965286179,0.01477141486000996,0.012991702575418056
0.6632251157578453,0.0017419931623633136,0.01549804201535445,0.01372120898974387
0.6981317007977318,0.001738293450757492,0.016205966424351098,0.014432907104578457
0.7330382858376184,0.0017337161554956786,0.01689430296392172,0.015125912485316128
0.767944870877505,0.0017282610829950256,0.017562194507204212,0.015799368202549288
0.8028514559173916,0.001721928442655175,0.018208812064584638,0.01645244505307636
0.8377580409572782,0.0017147187522880475,0.018833355119408,0.017084341992074193
0.8726646259971648,0.0017066327235727495,0.019435052092953098,0.017694286714908893
0.9075712110370514,0.0016976711225116065,0.02001316089338792,0.018281536348426084
0.9424777960769379,0.0016878345981868332,0.02056696951675352,0.018845378226602948
0.9773843811168246,0.0016771234707636529,0.021095796677019284,0.01938513073684036
1.0122909661567112,0.0016655374663280497,0.02159899244842802,0.01990014423277341
1.0471975511965976,0.0016530753812726302,0.022075938907658965,0.020389802018760884
1.0821041362364843,0.0016397346517278602,0.022526050766391213,0.020853521421628794
1.117010721276371,0.0016255107926198722,0.022948775987047657,0.021290754978575386
1.1519173063162575,0.001610396654018187,0.023343596376103892,0.021700991789005343
1.1868238913561442,0.0015943814154913663,0.023710028150533205,0.02208375910673201
1.2217304763960306,0.0015774491949193748,0.024047622473853114,0.02243862429503535
1.2566370614359172,0.0015595770728448575,0.024355965958917508,0.022765197344615754
1.2915436464758039,0.0015407321997314041,0.024634681135127255,0.02306313429140122
1.3264502315156905,0.0015208674044880524,0.02488342687814566,0.023332142125567848
1.361356816555577,0.0014999142313386455,0.025101898800538126,0.02357198628457271
1.3962634015954636,0.0014777712924461076,0.025289829602025235,0.023782502883730204
1.4311699866353502,0.0014542834231755315,0.02544698937826327,0.02396362028662423
1.4660765716752369,0.0014292009296862438,0.025573185887256867,0.0241154009389769
1.5009831567151235,0.0014020896517933366,0.025668264772672117,0.024238133327842915
1.53588974175501,0.0013720939494645864,0.025732109743463905,0.024332573915010026
1.5707963267948966,0.0013371071458528536,0.025764642709361872,0.02440079342059196
1.6057029118347832,0.0012895806701273796,0.025765823871878847,0.02445045158834892
1.6406094968746698,0.001220137558592389,0.025735651770619365,0.024491111460855128
1.6755160819145565,0.0011512875185023276,0.025674163284772955,0.02449985001590058
1.710422666954443,0.0010924920648242597,0.025581433589782394,0.024467091683661648
1.7453292519943295,0.0010427741781509315,0.02545757606928352,0.024393946407569568
1.7802358370342162,0.0010000662346508309,0.025302742182518368,0.02428267462317452
1.8151424220741028,0.0009626533307506952,0.02511712128753598,0.024135214890170273
1.8500490071139892,0.0009292608366586688,0.0249009404206115,0.02395309436721966
1.8849555921538759,0.000898955776716587,0.0246544640324423,0.02373752914019138
1.9198621771937625,0.0008710498199709019,0.024377993681818474,0.023489522865448153
1.9547687622336491,0.0008450278308734142,0.024071867687624433,0.023209939300133552
1.9896753472735358,0.000820498325141367,0.02373646074020832,0.022899552448564123
2.0245819323134224,0.0007971594058961312,0.02337218347336979,0.022559080879355736
2.059488517353309,0.0007747751496313114,0.022979481998471534,0.022189211345847597
2.0943951023931953,0.0007531590034336442,0.022558837402490997,0.02179061521898868
2.129301687433082,0.0007321619239217566,0.02211076521221538,0.02136396004981519
2.1642082724729685,0.0007116637657740023,0.021635814827272747,0.020909917786183264
2.199114857512855,0.0006915669309434631,0.021134568925319307,0.020429170655756973
2.234021442552742,0.0006717916147017715,0.020607642843524558,0.01992241539652875
2.2689280275926285,0.0006522721962643308,0.020055683941582005,0.019390366301392386
2.303834612632515,0.0006329544611850937,0.019479370952935365,0.01883375740252657
2.3387411976724017,0.0006137934358415389,0.018879413332903404,0.018253344028345036
2.3736477827122884,0.0005947516773896518,0.01825655061514525,0.017649903904207807
2.4085543677521746,0.0005757979058106868,0.01761155179178331,0.017024237927856407
2.443460952792061,0.0005569058946416769,0.016945214738026404,0.016377170725491892
2.478367537831948,0.0005380535578963329,0.01625836571014462,0.015709551081090362
2.5132741228718345,0.0005192221852710218,0.01555185895745143,0.015022252328474988
2.548180707911721,0.000500395787744612,0.014826576506672465,0.01431617280317296
2.5830872929516078,0.0004815605222005697,0.014083428204220438,0.013592236471575857
2.6179938779914944,0.0004627041672938318,0.013323352144363258,0.01285139389372355
2.652900463031381,0.000443815623563889,0.012547315679327514,0.012094623743292347
2.6878070480712677,0.00042488440834511255,0.011756317319338301,0.011322935222826286
2.722713633111154,0.0004059001091716425,0.010951390020279377,0.010537371908924302
2.7576202181510405,0.00038685174563478895,0.01013360668879216,0.009739017908244675
2.792526803190927,0.0003677269640315418,0.009304089338327173,0.008929007835015
2.827433388230814,0.00034851094143749996,0.0084640244747466,0.00810854331448035
2.8623399732707004,0.00032918478425539115,0.007614689571424764,0.007278921091484265
2.897246558310587,0.00030972302132341913,0.006757500306380811,0.006441582824630924
2.9321531433504737,0.00029008939155254364,0.005894099092939394,0.0055982079135558
2.9670597283903604,0.0002702291797194518,0.005026531979759859,0.004750898216446018
3.001966313430247,0.00025005383628958974,0.0041576324326659895,0.003902577519650608
3.036872898470133,0.00022940574064935282,0.003291946303676358,0.003057952448214018
3.07177948351002,0.00020795959076856682,0.0024382773195444985,0.0022261585369605604
3.1066860685499065,0.0001848258540741622,0.0016178318903080392,0.0014293095191523937
3.141592653589793,0.00029976237978742305,0.0008916614500797918,0.0005859038226966203
3.1764992386296798,0.00014923652122083176,0.0003963390624359696,0.0002441178107907212
3.2114058236695664,0.00013276833272984746,0.00016948565747603925,3.4061958091594855e-05
3.246312408709453,0.00011760093258880956,7.335785637727137e-05,-4.6595094863314385e-05
3.2812189937493397,0.00010361173342517257,2.7439961381835475e-05,-7.824400671184055e-05
3.3161255787892263,9.069368033192817e-05,6.20619174899293e-06,-8.63013621895738e-05
3.351032163829113,7.875299633420616e-05,-4.559806650093767e-09,-8.033261606754038e-05
3.385938748868999,6.770732041584642e-05,-1.347319031380272e-08,-6.907494001447714e-05
3.420845333908886,5.748416304047932e-05,-2.091538069192352e-08,-5.8654761681980825e-05
3.4557519189487724,4.8019620490672015e-05,-2.7703370245755236e-08,-4.900771627073121e-05
3.490658503988659,3.925730192640889e-05,-3.4085543374399265e-08,-4.007653350831147e-05
3.5255650890285457,3.114743281824333e-05,-4.017543148214463e-08,-3.181055690609034e-05
3.5604716740684323,2.3646106062800487e-05,-4.60336485019556e-08,-2.4165061832558452e-05
3.595378259108319,1.6714658174213172e-05,-5.1695313362431314e-08,-1.7100646651059867e-05
3.6302848441482056,1.0319152868506169e-05,-5.718166591140298e-08,-1.0582717591787694e-05
3.6651914291880923,4.429958431182905e-06,-6.250573497185887e-08,-4.581063334778423e-06
3.7000980142279785,-9.785912688351018e-07,-6.767538894442734e-08,9.109158798906745e-07
3.735004599267865,-5.928459173040081e-06,-7.269510250307418e-08,5.855764070537006e-06
3.7699111843077517,-1.0438095006867164e-05,-7.756704020430201e-08,1.0360527966662862e-05
3.8048177693476384,-1.4522554136070811e-05,-8.22917527219212e-08,1.444026238334889e-05
3.839724354387525,-1.819354354978331e-05,-8.686864171607108e-08,1.810667490806724e-05
3.8746309394274117,-2.1459389719694903e-05,-9.129628041797904e-08,2.1368093439276925e-05
3.9095375244672983,-2.4324918837868573e-05,-9.557264085551022e-08,2.4229346197013065e-05
3.944444109507185,-2.6791234498669274e-05,-9.969525870705702e-08,2.6691539239962215e-05
3.9793506945470716,-2.8855370632898078e-05,-1.0366135526345245e-07,2.8751709277634624e-05
4.014257279586958,-3.0509787486333845e-05,-1.0746792911583385e-07,3.040231955721801e-05
4.049163864626845,-3.174166422628721e-05,-1.1111182591828911e-07,3.1630552400368924e-05
4.084070449666731,-3.253192111337118e-05,-1.1458979187118599e-07,3.24173313215e-05
4.118977034706618,-3.285387349594488e-05,-1.1789851478667581e-07,3.2735974981158204e-05
4.153883619746504,-3.267137327744348e-05,-1.2103465539305554e-07,3.255033862205042e-05
4.1887902047863905,-3.1936221067912525e-05,-1.239948706973875e-07,3.181222619721514e-05
4.223696789826278,-3.058451686558444e-05,-1.2677583061547229e-07,3.045774103496897e-05
4.258603374866164,-2.8531428431171404e-05,-1.2937422860764157e-07,2.8402054202563763e-05
4.293509959906051,-2.5663538682484095e-05,-1.31786786679917e-07,2.5531751895804177e-05
4.328416544945937,-2.182738001492307e-05,-1.3401025476137932e-07,2.169336976016169e-05
4.363323129985824,-1.6811762883666173e-05,-1.360414041264698e-07,1.6675721479539705e-05
4.39822971502571,-1.0319617128513728e-05,-1.378770141455496e-07,1.0181740114368178e-05
4.4331363000655974,-1.9213151419701724e-06,-1.3951385118229221e-07,1.7818012907878802e-06
4.468042885105484,9.0264505468294e-06,-1.4094863784886768e-07,-9.347928195614855e-06
4.50294947014537,2.353001747176087e-05,-1.4217800999361824e-07,-2.414279583118971e-05
4.537856055185257,4.325415402052397e-05,-1.4319845759381544e-07,-4.426243555852827e-05
4.572762640225143,7.116253884045135e-05,-1.4400624396743194e-07,-7.272979586122782e-05
4.60766922526503,0.00011308725709381618,-1.4459729502543504e-07,-0.00011549359953071794
4.642575810304916,0.00018230059763372036,-1.4496704611437993e-07,-0.00018609157663250915
4.6774823953448035,0.00031692530230409334,-1.451102272936693e-07,-0.0003234089185774689
4.71238898038469,0.0006064125188766637,-1.4502055684091071e-07,-0.000618685789811038
4.747295565424577,0.0006506571335019304,-1.44690293935228e-07,-0.0006638149664659043
4.782202150464463,0.0006847588675529,-1.4410956816151895e-07,-0.0006985981544721195
4.817108735504349,0.0007155431674624792,-1.4326534210071473e-07,-0.0007299972961538296
4.852015320544236,0.0007446297851383746,-1.421397447518496e-07,-0.0007596645205858939
4.886921905584122,0.000772702898090277,-1.4070727167723296e-07,-0.0007882976633237597
4.9218284906240095,0.0008001186814046511,-1.3892982174198763e-07,-0.000816259984854486
4.956735075663896,0.0008270838623905313,-1.367473060048079e-07,-0.0008437622869443467
4.991641660703783,0.0008537259312626822,-1.3405839306140935e-07,-0.0008709345082809972
5.026548245743669,0.0008801259098765836,-1.3067686226779122e-07,-0.0008978591049363831
5.061454830783556,0.0009063355199742158,-1.2621925436547084e-07,-0.0009245884496280655
5.096361415823442,0.0009323869684988748,-1.1976540609567267e-07,-0.0009511544732749479
5.1312680008633285,0.0009582988971382384,-1.0862156047996854e-07,-0.000977573496641483
5.1661745859032155,0.0009840801907684688,-8.308057586082456e-08,-0.0010038448751596989
5.201081170943102,0.001009732520557396,-2.6718360980222303e-09,-0.001029929842804642
5.235987755982989,0.0010352521036150017,3.3633823973885924e-07,-0.001055620807447563
5.270894341022875,0.0010606309583560067,1.4285530519768746e-06,-0.0010804150244711499
5.305800926062762,0.0010858578244089812,3.2692180685008293e-06,-0.0011043057628286601
5.340707511102648,0.0011109188529799972,5.699840120079126e-06,-0.0011274373899195181
5.375614096142535,0.0011357981362269017,8.659532829552803e-06,-0.0011498545661218868
5.410520681182422,0.0011604781212509797,1.2109958649120016e-05,-0.0011715777250268793
5.445427266222308,0.0011849399397818902,1.6023768693793808e-05,-0.0011926149698837344
5.480333851262195,0.0012091636751839314,2.0383745919133976e-05,-0.0012129632027684761
5.515240436302081,0.0012331285821225873,2.518082803071754e-05,-0.0012326103257343215
5.550147021341968,0.0012568132699547765,3.041159032791894e-05,-0.0012515379450259532
5.585053606381854,0.0012801958579439516,3.6076164064184376e-05,-0.0012697236110386463
5.619960191421741,0.0013032541083134407,4.217688307326085e-05,-0.0012871423074064486
5.654866776461628,0.0013259655416567417,4.871762639458067e-05,-0.0013037672260952959
5.689773361501515,0.0013483075381381898,5.57037371721957e-05,-0.001319569951728758
5.724679946541401,0.0013702574271188843,6.314239880024547e-05,-0.0013345201768610166
5.759586531581287,0.0013917925672482121,7.104338135816237e-05,-0.0013485850372350141
5.794493116621174,0.0014128904186135368,7.942012025673321e-05,-0.0013617281067290743
5.82939970166106,0.0014335286081999991,8.829115291448892e-05,-0.0013739080274495102
5.8643062867009474,0.001453684989650646,9.76820223915675e-05,-0.0013850766670520914
5.899212871740834,0.0014733376981141402,0.00010762787316025569,-0.0013951765789161673
5.934119456780721,0.0014924652008086305,0.00011817714874466886,-0.0014041373560801343
5.969026041820607,0.0015110463438051205,0.00012939713947054807,-0.0014118701312106749
6.003932626860494,0.0015290603954341497,0.00014138284481058085,-0.0014182587585322517
6.03883921190038,0.0015464870866397596,0.0001542723702950458,-0.0014231444580775092
6.073745796940266,0.001563306648540196,0.00016827715153729718,-0.0014262956299737027
6.1086523819801535,0.0015794998474021355,0.00018375308652417009,-0.001427336757826008
6.14355896702004,0.0015950480171918855,0.00020141754077925751,-0.0014255314367564657
6.178465552059927,0.0016099330898308752,0.00022327792961954963,-0.0014188538220079431
6.213372137099813,0.0016241376232523227,0.00025771524274184214,-0.001398905132975527
6.2482787221397,0.0016376448273298753,0.0003328856521136248,-0.001337512071762848
