theta,z_plus,lambda_top,edge_margin
0.0,0.0017811695592929837,0.0005325156706860927,-0.0012842772797927507
0.03490658503988659,0.0017944023754645794,0.0009845456867531733,-0.0008457447362206977
0.06981317007977318,0.0018068243858812205,0.0017410219993246167,-0.0001019388742742283
0.10471975511965978,0.0018184202737265278,0.0026403120294522606,0.0007855233502512022
0.13962634015954636,0.0018291755455446574,0.003588204357478912,0.0017224453010233616
0.17453292519943295,0.0018390765461245436,0.004553158730358289,0.0026773006533112546
0.20943951023931956,0.00184811047102962,0.005523101626368649,0.003638028945918436
0.24434609527920614,0.001856265376688218,0.006492204747037406,0.0045988140628154235
0.2792526803190927,0.0018635301879375145,0.007457011480849363,0.005556210689153098
0.3141592653589793,0.0018698947028886776,0.008415109285210193,0.006507816688263742
0.3490658503988659,0.0018753495949516996,0.009364603020762086,0.007451746433911352
0.3839724354387525,0.0018798864118242063,0.01030388035530715,0.008386396215246459
0.4188790204786391,0.0018834975712077131,0.011231497421731589,0.009310329899099721
0.4537856055185257,0.0018861763529655548,0.01214611905779638,0.010222219177771514
0.4886921905584123,0.001887916887376666,0.01304648585299106,0.011120810627866861
0.5235987755982988,0.0018887141390654383,0.013931395240667232,0.012004906818820485
0.5585053606381855,0.0018885638860960507,0.014799690354653807,0.012873355190835836
0.5934119456780721,0.001887462693604669,0.015650253375361422,0.013725041427884659
0.6283185307179586,0.001885407881197771,0.016482001571527616,0.01455888553270589
0.6632251157578453,0.0018823974831601118,0.017293885012406827,0.015373839579583513
0.6981317007977318,0.0018784302002787553,0.018084885342374863,0.01616888653809053
0.7330382858376184,0.001873505341782697,0.01885401524534106,0.016943039796722712
0.767944870877505,0.001867622755496554,0.01960031836387241,0.017695343153265923
0.8028514559173916,0.0018607827437776402,0.020322869520742713,0.01842487112208952
0.8377580409572782,0.001852985962100141,0.021020775141869313,0.01913072946052717
0.8726646259971648,0.0018442332961984206,0.02169317381210513,0.01981205584998274
0.9075712110370514,0.0018345257123822162,0.022339236916438826,0.020468020689808967
0.9424777960769379,0.0018238640738386163,0.02295816933311231,0.02109782797779692
0.9773843811168246,0.0018122489132116769,0.023549210154579114,0.021700716263103204
1.0122909661567112,0.0017996801481498428,0.02411163341869062,0.022275959667577783
1.0471975511965976,0.0017861567212837611,0.024644748837006014,0.02282286898129658
1.0821041362364843,0.0017716761383585616,0.025147902510318502,0.02334079284919277
1.117010721276371,0.0017562338665386213,0.025620477623790938,0.023829119079921544
1.1519173063162575,0.0017398225367609842,0.026061895115772477,0.02428727612827627
1.1868238913561442,0.0017224308651195407,0.02647161431561347,0.02471473483319154
1.2217304763960306,0.0017040421607928975,0.026849133546730408,0.025111010542721652
1.2566370614359172,0.001684632207218238,0.02719399069188872,0.02547566584052612
1.2915436464758039,0.0016641661598494676,0.027505763718223584,0.025808314235177127
1.3264502315156905,0.0016425938368797573,0.02778407115995713,0.026108625446339778
1.361356816555577,0.0016198422526694258,0.02802857255712042,0.026376333459397605
1.3962634015954636,0.001595803129274997,0.02823896884887476,0.026611249657014262
1.4311699866353502,0.0015703105489875931,0.028415002720265058,0.026813285960297712
1.4660765716752369,0.0015430972712750617,0.028556458901441213,0.02698249968474065
1.5009831567151235,0.001513698352361029,0.02866316441855825,0.027119192099149998
1.53588974175501,0.001481197255386366,0.028734988795721873,0.02722416759522778
1.5707963267948966,0.001443337832774963,0.02877184420748568,0.02729963961805522
1.6057029118347832,0.0013920367811712363,0.02877368558153659,0.027353808064741927
1.6406094968746698,0.0013171894684648024,0.028740510651325886,0.027396977393491787
1.6755160819145565,0.0012429968094618902,0.02867235995852057,0.02740450321286944
1.710422666954443,0.0011796495110092716,0.028569316805263603,0.027366074304034146
1.7453292519943295,0.0011260805037590711,0.02843150715634586,0.02728290504251161
1.7802358370342162,0.0010800550385201822,0.028259099491507594,0.02715744335221701
1.8151424220741028,0.0010397229703324156,0.028052304608207783,0.02699178717846872
1.8500490071139892,0.0010037105338861184,0.027811375375325947,0.026787590630762106
1.8849555921538759,0.0009710128903273775,0.02753660643839731,0.026546173290263386
1.9198621771937625,0.0009408890887510049,0.027228333877132225,0.0262686270066062
1.9547687622336491,0.0009127848652137219,0.026886934816139525,0.02595589425362153
1.9896753472735358,0.0008862791724057691,0.02651282698996603,0.025608822234112146
2.0245819323134224,0.0008610474446565444,0.026106468263790088,0.02522819987024041
2.059488517353309,0.0008368361463824883,0.025668356111376956,0.024814783242066818
2.0943951023931953,0.0008134448849408677,0.025199027052231662,0.024369313269591977
2.129301687433082,0.0007907136362477798,0.024699056050290796,0.02389252814131806
2.1642082724729685,0.000768513472659801,0.024169055877008398,0.0233851721348954
2.199114857512855,0.0007467397264362303,0.023609676442348154,0.0228480019213832
2.234021442552742,0.0007253068730618828,0.02302160409805231,0.02228179108752919
2.2689280275926285,0.0007041446470509611,0.022405560918692446,0.021687333378700466
2.303834612632515,0.0006831950532384375,0.021762303967531857,0.02106544501322865
2.3387411976724017,0.0006624100369739786,0.021092624556308164,0.020416966318594704
2.3736477827122884,0.0006417496446001543,0.02039734751092013,0.019742762873427973
2.4085543677521746,0.0006211805521957485,0.019677330459039275,0.01904372629579961
2.443460952792061,0.000600674872860796,0.01893346316142437,0.01832077479110636
2.478367537831948,0.0005802091753619879,0.018166666917057928,0.0175748535581887
2.5132741228718345,0.000559763662689995,0.017377894084521464,0.01680693514857767
2.548180707911721,0.0005393214698967868,0.01656812778048917,0.016018019881194445
2.5830872929516078,0.0005188680476496618,0.01573838184449725,0.015209136435894595
2.6179938779914944,0.0004983906018809273,0.014889701203403868,0.014381342789485323
2.652900463031381,0.00047787756086024944,0.014023162839894434,0.01353572772781698
2.6878070480712677,0.0004573180385473997,0.013139877686135407,0.01267341328681706
2.722713633111154,0.00043670125597146706,0.012240993961562158,0.011795558680471262
2.7576202181510405,0.00041601586802609295,0.011327702820469299,0.010903366635082684
2.792526803190927,0.00039524911622324194,0.010401247805657675,0.009998093707109967
2.827433388230814,0.0003743856778807245,0.009462940801570206,0.009081067410131866
2.8623399732707004,0.0003534059860074591,0.008514189568342372,0.008153715462614763
2.897246558310587,0.0003322835996875342,0.007556546983883428,0.007217617712202143
2.9321531433504737,0.0003109807838340975,0.0065918035315151915,0.006274603132004412
2.9670597283903604,0.000289440461018175,0.005622172552983699,0.00532694328274516
3.001966313430247,0.0002675700462852935,0.0046506934609924985,0.004377772013781499
3.036872898470133,0.00024520437563448256,0.003682208513506032,0.00343210005035886
3.07177948351002,0.0002220018575344853,0.002726075581992239,0.002499633687307064
3.1066860685499065,0.0001970264433185033,0.0018050135758583222,0.001604046603673449
3.141592653589793,0.0003191908026406595,0.0009862547400746541,0.0006606801213811814
3.1764992386296798,0.00015680869498116746,0.00042793333405664077,0.00026798846517584997
3.2114058236695664,0.000138675269557267,0.00017740294601189833,3.595417106348598e-05
3.246312408709453,0.00012204735195750714,7.505547181485653e-05,-4.9432827181800754e-05
3.2812189937493397,0.00010677258069113146,2.9641192939562625e-05,-7.926683936539146e-05
3.3161255787892263,9.27191584547583e-05,7.157778785186022e-06,-8.741576283866744e-05
3.351032163829113,7.977263523242312e-05,-4.993452980011958e-09,-8.137308139005161e-05
3.385938748868999,6.78332891890014e-05,-1.339123961086813e-08,-6.92033462123923e-05
3.420845333908886,5.6813982251919714e-05,-2.041224163439924e-08,-5.7970674138592506e-05
3.4557519189487724,4.663839588413884e-05,-2.6850462417632004e-08,-4.759801426423925e-05
3.490658503988659,3.723957400680148e-05,-3.2910666862638254e-08,-3.801727615380015e-05
3.5255650890285457,2.855871629619196e-05,-3.868694250820705e-08,-2.9168577564624005e-05
3.5604716740684323,2.0544177552539672e-05,-4.4230974697910976e-08,-2.0999292078288374e-05
3.595378259108319,1.3150638523507917e-05,-4.957372640988964e-08,-1.3463225020387965e-05
3.6302848441482056,6.338421198894995e-06,-5.473460095973721e-08,-6.519924223832632e-06
3.6651914291880923,7.292772406998796e-08,-5.972598122928483e-08,-1.3411225978067254e-07
3.7000980142279785,-5.675812871745287e-06,-6.455572510124239e-08,5.611257146644045e-06
3.735004599267865,-1.093350163578652e-05,-6.922864389721624e-08,1.0864272991889304e-05
3.7699111843077517,-1.572183801064159e-05,-7.374742971556026e-08,1.564809058092603e-05
3.8048177693476384,-2.00587035596007e-05,-7.811326405156169e-08,1.9980590295549137e-05
3.839724354387525,-2.3958261478926117e-05,-8.232623230220011e-08,2.3875935246623917e-05
3.8746309394274117,-2.743096827827513e-05,-8.63856149156966e-08,2.7344582663359433e-05
3.9095375244672983,-3.0492240445516113e-05,-9.029009729263268e-08,3.0401950348223482e-05
3.944444109507185,-3.317972829720897e-05,-9.403792449914908e-08,3.308569037270982e-05
3.9793506945470716,-3.5467259904984515e-05,-9.762701745525408e-08,3.536963288752926e-05
4.014257279586958,-3.732234639658876e-05,-1.0105506156088305e-07,3.7221291335027874e-05
4.049163864626845,-3.871450321023424e-05,-1.043195751429456e-07,3.8610183635091296e-05
4.084070449666731,-3.961441286511517e-05,-1.0741796279466271e-07,3.9506994902320505e-05
4.118977034706618,-3.9993316876539244e-05,-1.1034755715307387e-07,3.988296931938617e-05
4.153883619746504,-3.982258702605036e-05,-1.1310565161204527e-07,3.970948137443832e-05
4.1887902047863905,-3.90734848135372e-05,-1.1568952575295874e-07,3.895779528778424e-05
4.223696789826278,-3.7717189086657944e-05,-1.1809646474501008e-07,3.759909262191293e-05
4.258603374866164,-3.5694578192727706e-05,-1.203237735960635e-07,3.5574254419131645e-05
4.293509959906051,-3.28432015735844e-05,-1.2236878683173042e-07,3.272083278675267e-05
4.328416544945937,-2.9002607481347047e-05,-1.2422887395117508e-07,2.8878378607395872e-05
4.363323129985824,-2.3956707280495994e-05,-1.2590144079859337e-07,2.38308058396974e-05
4.39822971502571,-1.7400696569716796e-05,-1.2738392680704753e-07,1.727331264290975e-05
4.4331363000655974,-8.892438197955642e-06,-1.2867379788012105e-07,8.763764400075522e-06
4.468042885105484,2.2323864245358202e-06,-1.2976853446857654e-07,-2.4068026874951133e-06
4.50294947014537,1.7017288853714758e-05,-1.3066561416005475e-07,-1.7488300244949108e-05
4.537856055185257,3.7197532038507085e-05,-1.3136248779877518e-07,-3.8072845167076e-05
4.572762640225143,6.588351446753611e-05,-1.3185654775393949e-07,-6.733304130464077e-05
4.60766922526503,0.00010925470160277256,-1.321450864414099e-07,-0.00011157194072126943
4.642575810304916,0.00018157759618187236,-1.3222524245611857e-07,-0.0001853413733479659
4.6774823953448035,0.0003248560082523443,-1.320939306534655e-07,-0.0003314852223480446
4.71238898038469,0.0006429168881347259,-1.3174775099172213e-07,-0.0006559069736484122
4.747295565424577,0.0006904616360526815,-1.3118286871617222e-07,-0.0007044020516424513
4.782202150464463,0.0007273427245950064,-1.3039485501621774e-07,-0.0007420199739419227
4.817108735504349,0.0007607061817178835,-1.2937847189043875e-07,-0.0007760496838241316
4.852015320544236,0.0007922701549981622,-1.281273761673362e-07,-0.0008082436854742927
4.886921905584122,0.0008227624594044731,-1.2663370283628942e-07,-0.000839344342295399
4.9218284906240095,0.0008525622979134983,-1.2488746181765676e-07,-0.0008697384313335859
4.956735075663896,0.0008818896992586578,-1.228756341837797e-07,-0.0008996503688780146
4.991641660703783,0.0009108801857988949,-1.205807594354758e-07,-0.0009292183702743083
5.026548245743669,0.0009396196754547782,-1.1797860639997883e-07,-0.0009585300475702738
5.061454830783556,0.0009681627870473141,-1.1503406224380271e-07,-0.0009876410768505043
5.096361415823442,0.000996543282024592,-1.1169319733074463e-07,-0.0010165858408624146
5.1312680008633285,0.0010247804170991641,-1.0786598005558666e-07,-0.001045383891421203
5.1661745859032155,0.001052883012845696,-1.0338162894232102e-07,-0.0010740440547315523
5.201081170943102,0.0010808521717626252,-9.783953355882199e-08,-0.0011025670547314367
5.235987755982989,0.0011086831597716868,-8.983847986616768e-08,-0.0011309466614469869
5.270894341022875,0.0011363667490547063,-6.691232054644057e-08,-0.0011591609963563468
5.305800926062762,0.0011638902024660317,2.0174727159969932e-07,-0.0011869662592437526
5.340707511102648,0.0011912380126208064,1.2309900389640946e-06,-0.0012138317828342584
5.375614096142535,0.0012183924688918644,3.001316494703891e-06,-0.001239759001774998
5.410520681182422,0.0012453341010450654,5.415675966991225e-06,-0.0012648251070989753
5.445427266222308,0.0012720420327238075,8.420048120961836e-06,-0.0012890628252573218
5.480333851262195,0.0012984942679006265,1.1970369854639423e-05,-0.0013124937834039997
5.515240436302081,0.001324667926693849,1.6032543751114882e-05,-0.001335128741476611
5.550147021341968,0.001350539442377961,2.0584553653022084e-05,-0.0013569656775724982
5.585053606381854,0.0013760847282500367,2.561528329746384e-05,-0.0013779911395175736
5.619960191421741,0.0014012793207826175,3.112202774939748e-05,-0.0013981828794488722
5.654866776461628,0.0014260985038953673,3.7108199577873045e-05,-0.0014175122743954017
5.689773361501515,0.0014505174180172878,4.358175100278594e-05,-0.0014359460153748475
5.724679946541401,0.001474511156757305,5.055438707364162e-05,-0.0014534469928188095
5.759586531581287,0.001498054853365151,5.804152311116423e-05,-0.0014699744273212899
5.794493116621174,0.001521123758685533,6.606294532515806e-05,-0.0014854832885340856
5.82939970166106,0.001543693311944208,7.464419007199526e-05,-0.0014999229881110967
5.8643062867009474,0.0015657392054246,8.381875133226834e-05,-0.0015132352382008238
5.899212871740834,0.0015872374438764757,9.363137539856839e-05,-0.0015253508173554368
5.934119456780721,0.0016081643993284172,0.00010414295473815735,-0.001536184732576828
5.969026041820607,0.0016284968618418632,0.00011543799738157964,-0.0015456288016971209
6.003932626860494,0.0016482120866379937,0.00012763657769016858,-0.001553539750680585
6.03883921190038,0.001667287837943318,0.00014091473314074455,-0.00155971886156144
6.073745796940266,0.0016857024298307995,0.0001555425145890073,-0.001563873963838408
6.1086523819801535,0.0017034347642770095,0.00017196556999771835,-0.0015655378895648314
6.14355896702004,0.0017204643666094285,0.0001910331523223561,-0.001563840501619261
6.178465552059927,0.0017367714184793924,0.0002150975505478865,-0.0015564092963010938
6.213372137099813,0.0017523367884635889,0.0002556877296786323,-0.0015316957945542284
6.2482787221397,0.001767142060369141,0.0003409083179882009,-0.001461576583588323
