theta,z_plus,lambda_top,edge_margin
0.0,0.00132405513983418,0.000746048956818149,-0.0006044872858127145
0.03490658503988659,0.0013322333036441367,0.0010789154660302254,-0.000279962503686794
0.06981317007977318,0.0013398710783576427,0.0014527019820124673,8.603348208767177e-05
0.10471975511965978,0.001346958983840933,0.0018465829853110292,0.00047268482179327743
0.13962634015954636,0.001353488047106947,0.002250004326572623,0.0008694465185235371
0.17453292519943295,0.001359449810884564,0.0026575304923925147,0.0012708916852902596
0.20943951023931956,0.0013648363404429385,0.00306608394768522,0.0016739508804334228
0.24434609527920614,0.001369640228604612,0.0034737212528429887,0.0020766882196662844
0.2792526803190927,0.0013738545988623467,0.0038790830803651505,0.002477751389525557
0.3141592653589793,0.0013774731064934258,0.004281132313469179,0.0028761097448458854
0.3490658503988659,0.0013804899375407253,0.004679021228152551,0.003270921491861011
0.3839724354387525,0.00138289980550115,0.005072020157116572,0.0036614623555053993
0.4188790204786391,0.001384697945527829,0.005459477229854889,0.004047085325416503
0.4537856055185257,0.0013858801059111912,0.005840794686179544,0.004427196978150128
0.4886921905584123,0.0013864425365537414,0.0062154144566664415,0.004801243069381626
0.5235987755982988,0.0013863819740914018,0.006582809143339016,0.0051686995297657865
0.5585053606381855,0.001385695623237351,0.006942476262859521,0.005529066727157423
0.5934119456780721,0.0013843811338279286,0.007293934523644378,0.005881865767139891
0.6283185307179586,0.0013824365729284678,0.007636721406066995,0.006226636101679958
0.6632251157578453,0.001379860391201928,0.007970391597423951,0.006562933998397984
0.6981317007977318,0.0013766513825441357,0.008294515998949845,0.006890331588754827
0.7330382858376184,0.0013728086357314435,0.008608681122104974,0.007208416313658901
0.767944870877505,0.0013683314764891539,0.008912488753266523,0.007516790647247586
0.8028514559173916,0.0013632193979430905,0.009205555805224634,0.007815072019322682
0.8377580409572782,0.0013574719768211436,0.009487514299337254,0.008102892882979686
0.8726646259971648,0.0013510887719669043,0.009758011439025806,0.008379900891619564
0.9075712110370514,0.0013440692006266239,0.010016709746621756,0.0086457591619826
0.9424777960769379,0.001336412386443977,0.010263287243329703,0.008900146609156846
0.9773843811168246,0.0013281169709481557,0.010497437657465664,0.009142758347098545
1.0122909661567112,0.0013191808772463564,0.01071887064993467,0.009373306155143387
1.0471975511965976,0.0013096010101536263,0.01092731204863339,0.009591519018276692
1.0821041362364843,0.0012993728703394741,0.011122504085437267,0.009797143757691003
1.117010721276371,0.0012884900499634034,0.011304205630879628,0.009989945779916956
1.1519173063162575,0.001276943561531882,0.011472192422706414,0.010169709989943895
1.1868238913561442,0.001264720926501132,0.011626257285299733,0.010336241940268578
1.2217304763960306,0.0012518049084669336,0.011766210337579897,0.010489369330943625
1.2566370614359172,0.0012381717042775605,0.011891879187470398,0.010628944049107285
1.2915436464758039,0.0012237882783886136,0.012003109111381643,0.010754845067425257
1.3264502315156905,0.001208608284748998,0.0120997632174627,0.010866982767018722
1.361356816555577,0.001192565538484549,0.012181722591606225,0.010965305742351985
1.3962634015954636,0.0011755629619331902,0.012248886425384426,0.011049812204212571
1.4311699866353502,0.0011574524792816062,0.012301172125253331,0.011120570596386093
1.4660765716752369,0.0011379948115887867,0.012338515402497956,0.011177760694677394
1.5009831567151235,0.001116767688703241,0.012360870343507876,0.01122176730103057
1.53588974175501,0.0010929097753551165,0.012368209460075445,0.011253441489213225
1.5707963267948966,0.0010641122974374792,0.012360523719502654,0.011275129176116425
1.6057029118347832,0.0010201660318532753,0.01233782255438926,0.01129725320189892
1.6406094968746698,0.0009536417843349712,0.012300133852057903,0.011327419232036232
1.6755160819145565,0.0008926348122503038,0.012247503923653438,0.011337016415158128
1.710422666954443,0.0008425622993570676,0.012179997453036474,0.011320583907692265
1.7453292519943295,0.000801212828991164,0.01209769742567719,0.011280460340106203
1.7802358370342162,0.0007662888674695204,0.012000705037847751,0.01121909039302884
1.8151424220741028,0.0007361001366203081,0.011889139586513305,0.01113831744716059
1.8500490071139892,0.0007094546947475479,0.011763138340435735,0.011039494551793236
1.8849555921538759,0.0006855060445641632,0.011622856393137145,0.010923640227681698
1.9198621771937625,0.0006636418394694101,0.011468466498525162,0.010791551822266364
1.9547687622336491,0.0006434100765126905,0.011300158890170164,0.01064388061212722
1.9896753472735358,0.000624470661132297,0.011118141085452669,0.010481181011097726
2.0245819323134224,0.0006065632392477378,0.010922637676084616,0.010303943172051924
2.059488517353309,0.000589485428931198,0.010713890106865893,0.010112614969356072
2.0943951023931953,0.0005730777877204361,0.010492156444996847,0.009907617101522003
2.129301687433082,0.0005572132227939109,0.010257711142860688,0.009689353655610898
2.1642082724729685,0.0005417893892534297,0.01001084479796855,0.009458219620930053
2.199114857512855,0.0005267231367843005,0.009751863914792734,0.009214606315272747
2.234021442552742,0.0005119463860149978,0.009481090674602463,0.008958905360867166
2.2689280275926285,0.000497403019535059,0.009198862721303649,0.008691511641377889
2.303834612632515,0.00048304650404623617,0.00890553297388455,0.008412825539757389
2.3387411976724017,0.00046883804656863774,0.008601469479696554,0.008123254672196543
2.3736477827122884,0.00045474514538886707,0.008287055327930087,0.007823215279633443
2.4085543677521746,0.00044074043560890595,0.007962688650009112,0.007513133405688027
2.443460952792061,0.0004268007560397285,0.0076287827443581235,0.0071934459731976
2.478367537831948,0.00041290638277817476,0.0072857663788968505,0.006864601868463112
2.5132741228718345,0.0003990403876603669,0.006934084348605721,0.006527063153192146
2.548180707911721,0.0003851880885190981,0.006574198402407239,0.00618130655211776
2.5830872929516078,0.0003713365637725728,0.006206588711598102,0.005827825416550078
2.6179938779914944,0.0003574742068507542,0.005831756145353084,0.005467132454365315
2.652900463031381,0.00034359029641567934,0.005450225772807965,0.005099763670463972
2.6878070480712677,0.0003296745558685953,0.005062552272779547,0.00472628422579358
2.722713633111154,0.00031571666918613794,0.004669328390770501,0.004347297388200641
2.7576202181510405,0.0003017057074340499,0.0042711984159934085,0.003963458594410677
2.792526803190927,0.0002876293968489243,0.003868880225781566,0.0035754982409956634
2.827433388230814,0.00027347311594521403,0.0034632025560173106,0.0031842599777531923
2.8623399732707004,0.00025921842608232337,0.0030551706148128155,0.0027907678202088457
2.897246558310587,0.00024484077286266993,0.0026460873082618215,0.002396349719941898
2.9321531433504737,0.00023030563555079424,0.002237790152804211,0.002002878404542401
2.9670597283903604,0.0002155615524817508,0.001833143939225101,0.0016132711556937152
3.001966313430247,0.00020052619777989134,0.001437127604834922,0.0012325908830994328
3.036872898470133,0.00018505465755874566,0.0010592861314560349,0.0008705303807461143
3.07177948351002,0.00016885113767224882,0.0007185024541274299,0.0005462742937017361
3.1066860685499065,0.00015111583059343315,0.000445443106652304,0.00029130495944700225
3.141592653589793,0.00024576924055914255,0.0002614016414546898,1.0717016084364403e-05
3.1764992386296798,0.0001304929934294923,0.00015026178207793895,1.7158928779856817e-05
3.2114058236695664,0.00011912516568769591,8.248123173798365e-05,-3.902643726346619e-05
3.246312408709453,0.00010852885783768504,4.029876429780595e-05,-7.04006706966328e-05
3.2812189937493397,9.864760341742623e-05,1.7116320330423726e-05,-8.350423515535103e-05
3.3161255787892263,8.943072072859129e-05,4.048869832732036e-06,-8.717046531043108e-05
3.351032163829113,8.083269240155588e-05,-3.8939407220155536e-09,-8.245324019030901e-05
3.385938748868999,7.281263042741583e-05,-1.0465388126811699e-08,-7.427934842409096e-05
3.420845333908886,6.533381515654158e-05,-1.568106711856621e-08,-6.665617252679097e-05
3.4557519189487724,5.8363298783516195e-05,-2.0413874657874707e-08,-5.9550978633844396e-05
3.490658503988659,5.187156555188168e-05,-2.4869943896869883e-08,-5.293386680681619e-05
3.5255650890285457,4.583224238866403e-05,-2.9132524493314567e-08,-4.677801976093062e-05
3.5604716740684323,4.022185497772136e-05,-3.324302827032676e-08,-4.105953510554611e-05
3.595378259108319,3.501962545552729e-05,-3.722434858101442e-08,-3.575724231321885e-05
3.6302848441482056,3.02073090126486e-05,-4.108981980727288e-08,-3.085254501270885e-05
3.6651914291880923,2.5769067758409496e-05,-4.4847315353334866e-08,-2.632929642893102e-05
3.7000980142279785,2.1691381308136686e-05,-4.850135804054892e-08,-2.217371029233997e-05
3.735004599267865,1.7962994743066888e-05,-5.205430533591477e-08,-1.837430894326414e-05
3.7699111843077517,1.457490594746135e-05,-5.5507060779784085e-08,-1.4921911127190361e-05
3.8048177693476384,1.1520395942652876e-05,-5.885952422902129e-08,-1.1809663385734954e-05
3.839724354387525,8.795107844206604e-06,-6.211088940187292e-08,-9.03312089049261e-06
3.8746309394274117,6.39718264752443e-06,-6.525984774911503e-08,-6.590386148224033e-06
3.9095375244672983,4.327463457578579e-06,-6.830473249620847e-08,-4.482317459226359e-06
3.944444109507185,2.58978439618214e-06,-7.124362313194827e-08,-2.712823707237731e-06
3.9793506945470716,1.1913668030928622e-06,-7.407442295466695e-08,-1.2892685621093864e-06
4.014257279586958,1.4335433752377747e-07,-7.679491776514226e-08,-2.2301634203939528e-07
4.049163864626845,-5.384685207084405e-07,-7.940282104900734e-08,4.590656996594332e-07
4.084070449666731,-8.327112470056532e-07,-8.189580925002605e-08,7.508154377556271e-07
4.118977034706618,-7.110740018080699e-07,-8.427154961931368e-08,6.268024521887563e-07
4.153883619746504,-1.3657251683831034e-07,-8.652772237654374e-08,5.0044794461766605e-08
4.1887902047863905,9.38908474339328e-07,-8.866203841700347e-08,-1.046348682243118e-06
4.223696789826278,2.5780372469217577e-06,-9.067225343889937e-08,-2.720270245299092e-06
4.258603374866164,4.862906343211532e-06,-9.255617912059786e-08,-5.0527206491963615e-06
4.293509959906051,7.902111208134522e-06,-9.43116917857075e-08,-8.154465124082921e-06
4.328416544945937,1.1841285923333289e-05,-9.593673885684794e-08,-1.2174048380656803e-05
4.363323129985824,1.6879227345927493e-05,-9.742934328317019e-08,-1.7314241236129214e-05
4.39822971502571,2.32933875766352e-05,-9.878760603137367e-08,-2.3858042934199277e-05
4.4331363000655974,3.1481751254875887e-05,-1.0000970664730604e-07,-3.221139598662071e-05
4.468042885105484,4.203484190217406e-05,-1.0109390179820669e-07,-4.297663264201575e-05
4.50294947014537,5.5866574394861546e-05,-1.0203852162585409e-07,-5.708594440438463e-05
4.537856055185257,7.446888613827767e-05,-1.0284196362197167e-07,-7.60611058246652e-05
4.572762640225143,0.00010045229077977272,-1.0350268360705878e-07,-0.00010256483927897523
4.60766922526503,0.00013883313094004287,-1.040191832247373e-07,-0.00014171381274206846
4.642575810304916,0.00020063076262618058,-1.0438999312198828e-07,-0.00020474776787182618
4.6774823953448035,0.00031567399711732657,-1.0461365067324696e-07,-0.00032209209071034636
4.71238898038469,0.000563505883822036,-1.0468867064631185e-07,-0.0005748806901691231
4.747295565424577,0.0006014911019676067,-1.0461350654659967e-07,-0.0006136255375135054
4.782202150464463,0.0006286306746524867,-1.0438649940546517e-07,-0.0006413076746449419
4.817108735504349,0.0006525724595655716,-1.040058092918941e-07,-0.0006657279145661749
4.852015320544236,0.0006748794012950207,-1.0346932253612928e-07,-0.0006884804586434573
4.886921905584122,0.0006961919492695541,-1.0277452399516627e-07,-0.0007102185627789403
4.9218284906240095,0.000716840344500608,-1.0191831768233749e-07,-0.0007312790697083025
4.956735075663896,0.0007370165040911297,-1.0089676890419962e-07,-0.0007518577309418565
4.991641660703783,0.0007568399939376688,-9.970472310410595e-08,-0.0007720764985395263
5.026548245743669,0.000776388349137134,-9.833522362721697e-08,-0.0007920144513435039
5.061454830783556,0.0007957127888996151,-9.677858684581224e-08,-0.0008117238232644532
5.096361415823442,0.0008148471013608933,-9.502086240924884e-08,-0.0008312390642505204
5.1312680008633285,0.0008338130111992265,-9.304111937548182e-08,-0.0008505823125425864
5.1661745859032155,0.000852623597388888,-9.080631368482779e-08,-0.0008697668756503506
5.201081170943102,0.0008712855648754683,-8.826067910751255e-08,-0.0008887995368520852
5.235987755982989,0.0008898008097570171,-8.530112167850455e-08,-0.000907682127073836
5.270894341022875,0.0009081675313566728,-8.171061984729365e-08,-0.0009264125926036536
5.305800926062762,0.0009263810437950479,-7.693426940608895e-08,-0.000944985598940355
5.340707511102648,0.0009444343824586346,-6.90378399480439e-08,-0.0009633921079477554
5.375614096142535,0.0009623187669338349,-4.67013982481058e-08,-0.0009816118436707598
5.410520681182422,0.0009800239612628649,7.88103394581201e-08,-0.000999545630148664
5.445427266222308,0.0009975385593008384,5.370808892926464e-07,-0.0010169522495975627
5.480333851262195,0.0010148502144724724,1.400255043216145e-06,-0.0010337469637187058
5.515240436302081,0.0010319458275939968,2.59400894864287e-06,-0.0010499907351972338
5.550147021341968,0.0010488117026039928,4.0993155751637875e-06,-0.0010656886210809089
5.585053606381854,0.001065433677403577,5.932454000413177e-06,-0.0010808098969512354
5.619960191421741,0.0010817972351462425,8.122077357127036e-06,-0.0010953111024920405
5.654866776461628,0.0010978875999878613,1.0703129181724092e-05,-0.0011091422228058944
5.689773361501515,0.0011136898203429307,1.3718271853301617e-05,-0.0011222453448964877
5.724679946541401,0.00112918884198436,1.7223501145720707e-05,-0.0011345491176783266
5.759586531581287,0.0011443695727968567,2.1296194351696487e-05,-0.0011459607699010974
5.794493116621174,0.0011592169405972752,2.6044096392847175e-05,-0.0011563571830163738
5.82939970166106,0.0011737159451337136,3.1613157598587335e-05,-0.0011655771064378005
5.8643062867009474,0.0011878517051435926,3.8190805536534285e-05,-0.0011734179337099303
5.899212871740834,0.0012016095011714847,4.6000995068324614e-05,-0.0011796406961265898
5.934119456780721,0.0012149748147071923,5.529179490533523e-05,-0.0011839825160960009
5.969026041820607,0.001227933364093928,6.632635596129535e-05,-0.001186165675414511
6.003932626860494,0.0012404711375685106,7.939876840412908e-05,-0.0011858817919157517
6.03883921190038,0.0012525744237249534,9.49082862544123e-05,-0.0011827176259450402
6.073745796940266,0.0012642298396358012,0.00011357244457426654,-0.0011759419918542507
6.1086523819801535,0.0012754243568190251,0.00013705106259449725,-0.0011638817813609083
6.14355896702004,0.0012861453251999419,0.00016980402603620145,-0.0011420642056677393
6.178465552059927,0.0012963804951856349,0.0002230928091206022,-0.0010992152959687453
6.213372137099813,0.0013061180379423788,0.00031842741327606423,-0.0010138129854251623
6.2482787221397,0.0013153465639434122,0.00048634054581575087,-0.0008553129494065295
