theta,z_plus,lambda_top,edge_margin
0.0,0.0018398814523085635,0.0006643550010113458,-0.001212324080343389
0.03490658503988659,0.001852436518639653,0.001037317343516937,-0.0008521679054955091
0.06981317007977318,0.0018641950173574904,0.0017008205456474058,-0.00020065837205723446
0.10471975511965978,0.0018751424037203037,0.002448985693346775,0.000536340441552065
0.13962634015954636,0.0018852649136888353,0.003224169089772976,0.0013011988778103643
0.17453292519943295,0.0018945495775943124,0.004008460346264503,0.0020760197771183047
0.20943951023931956,0.0019029842313688272,0.004794569946752652,0.0028535260307564485
0.24434609527920614,0.0019105575252476182,0.005578714441552772,0.0036299457658002018
0.2792526803190927,0.0019172589298280746,0.0063585027500745505,0.004402898641649914
0.3141592653589793,0.0019230787393423666,0.007132181715997256,0.0051706414018680424
0.3490658503988659,0.0019280080719683978,0.007898325382055323,0.005931757148647557
0.3839724354387525,0.001932038866965912,0.008655692251678334,0.006685012607373104
0.4188790204786391,0.00193516387837949,0.009403153990339808,0.007429286834392728
0.4537856055185257,0.0019373766649957121,0.010139657443177717,0.008163533244882091
0.4886921905584123,0.0019386715761753593,0.010864203390364207,0.008886758382665342
0.5235987755982988,0.0019390437330997492,0.011575834240597042,0.0095980096328353
0.5585053606381855,0.0019384890048687326,0.012273626745789664,0.010296367960823557
0.5934119456780721,0.0019370039787606427,0.012956687658740917,0.010980943600405062
0.6283185307179586,0.0019345859238037984,0.013624151178120526,0.011650873535840652
0.6632251157578453,0.0019312327466046006,0.014275177511476455,0.012305320109939762
0.6981317007977318,0.0019269429381144837,0.014908952154614612,0.012943470357737838
0.7330382858376184,0.0019217155096776367,0.015524685638607441,0.013564535818736251
0.767944870877505,0.0019155499162562264,0.016121613585980778,0.014167752671399428
0.8028514559173916,0.001908445964141948,0.01669899697254009,0.014752382089115303
0.8377580409572782,0.0019004036996778445,0.017256122525581653,0.015317710751910251
0.8726646259971648,0.0018914232744545061,0.017792303211158583,0.015863051471214987
0.9075712110370514,0.0018815047809957418,0.018306878777395605,0.016387743900779947
0.9424777960769379,0.0018706480509407186,0.018799216330394955,0.016891155318435422
0.9773843811168246,0.0018588524049054484,0.019268710925756702,0.017372681472753143
1.0122909661567112,0.0018461163391698637,0.019714786163213812,0.01783174749726055
1.0471975511965976,0.001832437128463497,0.02013689477502264,0.018267808903989873
1.0821041362364843,0.0018178103154068382,0.020534519200989663,0.01868035267927469
1.117010721276371,0.0018022290439438644,0.020907172144634452,0.01906889851981171
1.1519173063162575,0.0017856831735446406,0.021254397106179067,0.019433000269163534
1.1868238913561442,0.00176815807809547,0.021575768888939847,0.019772247649282468
1.2217304763960306,0.0017496329791739686,0.021870894076368205,0.020086268437610758
1.2566370614359172,0.001730078570634484,0.02213941147750246,0.020374731335455285
1.2915436464758039,0.0017094535258489663,0.022380992538993554,0.020637349942627607
1.3264502315156905,0.001687699168362592,0.022595341722188366,0.02087388857045852
1.361356816555577,0.001664730968476483,0.02278219684401092,0.021084171256164908
1.3962634015954636,0.0016404242051098535,0.022941329380594858,0.021268096691382805
1.4311699866353502,0.0016145880320074383,0.02307254473279851,0.021425664940150923
1.4660765716752369,0.0015869140215574633,0.0231756824528875,0.02155703015089889
1.5009831567151235,0.001556860068898605,0.023250616431802373,0.021662619161525797
1.53588974175501,0.0015233329242049089,0.023297255046548667,0.02174345546385966
1.5707963267948966,0.0014834897500050684,0.02331554126735564,0.02180238172235047
1.6057029118347832,0.0014256539093386823,0.02330545272435043,0.021851285736824974
1.6406094968746698,0.0013389124644445133,0.02326700173359051,0.021901311019857105
1.6755160819145565,0.0012571726234893918,0.02320023528239032,0.02191791920643114
1.710422666954443,0.001189215046875829,0.023105234973968214,0.021892235626154867
1.7453292519943295,0.0011326429521962627,0.022982116931532584,0.021826821120292397
1.7802358370342162,0.001084566334342196,0.022831031662019205,0.021724774000990165
1.8151424220741028,0.0010427895384174809,0.022652163879789605,0.021588518550603775
1.8500490071139892,0.0010057417688430538,0.022445732290703922,0.021419875686484006
1.8849555921538759,0.0009722982457449668,0.022211989337095714,0.021220245126435847
1.9198621771937625,0.0009416410025805191,0.02195122090429879,0.02099074708166666
1.9547687622336491,0.0009131640888111315,0.02166374598951967,0.020732318618932315
1.9896753472735358,0.0008864104521673075,0.0213499163340099,0.020445777672799245
2.0245819323134224,0.0008610296294479916,0.021010116019685103,0.02013186579764815
2.059488517353309,0.0008367489283740269,0.020644761031567975,0.01979127712462647
2.0943951023931953,0.0008133534289671233,0.0202542987877129,0.019424678290166433
2.129301687433082,0.0007906718412075551,0.019839207638622902,0.019032722360591198
2.1642082724729685,0.0007685663213515499,0.019399996338613924,0.018616058690835345
2.199114857512855,0.0007469250128107679,0.018937203492157495,0.018175339979090512
2.234021442552742,0.0007256564949192703,0.018451396978986137,0.017711227354168482
2.2689280275926285,0.0007046855894860414,0.01794317336274921,0.01722439406147345
2.303834612632515,0.0006839501481109786,0.017413157289360957,0.01671552813828776
2.3387411976724017,0.000663398557500256,0.01686200088303991,0.01618533435438965
2.3736477827122884,0.0006429877766442107,0.01629038315062023,0.015634535618443135
2.4085543677521746,0.0006226817718507665,0.01569900940836407,0.01506387400107629
2.443460952792061,0.0006024502515162205,0.015088610750733839,0.014474111494187293
2.478367537831948,0.0005822676274183792,0.01445994358821584,0.013866030608249093
2.5132741228718345,0.0005621121466045986,0.013813789292611373,0.013240434903074682
2.548180707911721,0.0005419651497694616,0.013150954005345848,0.012598149552580998
2.5830872929516078,0.000521810419694612,0.012472268690803832,0.011940022062715328
2.6179938779914944,0.0005016335875588373,0.011778589558481281,0.011266923299171267
2.652900463031381,0.00048142156587604806,0.011070799045394725,0.010579749048201156
2.6878070480712677,0.0004611619740252028,0.010349807662767187,0.009879422449261481
2.722713633111154,0.00044084251446379735,0.009616557204242267,0.009166897839489194
2.7576202181510405,0.0004204502419257939,0.008872026156271579,0.008443166909507268
2.792526803190927,0.0003999706384770695,0.008117238786198758,0.007709268734952147
2.827433388230814,0.0003793863525522159,0.007353280611835917,0.0069663065322326575
2.8623399732707004,0.00035867535509217705,0.006581325460965209,0.006215476598771189
2.897246558310587,0.0003378080540324175,0.0058026847613192175,0.005458120546206152
2.9321531433504737,0.000316742450519957,0.005018902377195574,0.004695825077665218
2.9670597283903604,0.0002954153383019379,0.0042319506061246105,0.003930626961056634
3.001966313430247,0.00027372467181714687,0.003444674529401297,0.0031654753641478075
3.036872898470133,0.0002514892393296918,0.002661927672846817,0.0024054086487305315
3.07177948351002,0.00022833599846356874,0.0018939525352670368,0.0016610498168341966
3.1066860685499065,0.00020324775969382845,0.0011682446371806855,0.0009609319222929805
3.141592653589793,0.0003293952437322626,0.0005687539580243226,0.00023277080941741475
3.1764992386296798,0.00016368989860138692,0.00023019906873897943,6.323537216556478e-05
3.2114058236695664,0.00014582314133819142,9.834217752498866e-05,-5.03974266399666e-05
3.246312408709453,0.00012947986132375833,5.090127091050662e-05,-8.116818763972687e-05
3.2812189937493397,0.00011450071209867165,2.4144365136460928e-05,-9.264636120418415e-05
3.3161255787892263,0.00010074854700414256,5.470764944728403e-06,-9.7292752999497e-05
3.351032163829113,8.810482459326583e-05,-3.6964876188922683e-09,-8.987061757275004e-05
3.385938748868999,7.646670359577826e-05,-1.0649189149797609e-08,-7.800668685684362e-05
3.420845333908886,6.574468057513527e-05,-1.6363084164437755e-08,-6.707593727080241e-05
3.4557519189487724,5.5860658595018986e-05,-2.158368708044337e-08,-5.699945545399981e-05
3.490658503988659,4.6746361306394094e-05,-2.6508763277309144e-08,-4.770779729579929e-05
3.5255650890285457,3.834202644137083e-05,-3.122297796520556e-08,-3.9140089948163455e-05
3.5604716740684323,3.059532755654584e-05,-3.5770272352428005e-08,-3.124300438002918e-05
3.595378259108319,2.3460484286865546e-05,-4.017572797959413e-08,-2.3969869700582452e-05
3.6302848441482056,1.6897530276401458e-05,-4.445432921434935e-08,-1.727993521114384e-05
3.6651914291880923,1.0871715025158622e-05,-4.861512376403429e-08,-1.113776444942583e-05
3.7000980142279785,5.353021643948366e-06,-5.2663435171859216e-08,-5.512745511999193e-06
3.735004599267865,3.1578734260875563e-07,-5.660213910175638e-08,-3.7870522856268715e-07
3.7699111843077517,-4.2615822807262495e-06,-6.043244630094079e-08,4.201149834425308e-06
3.8048177693476384,-8.396810139090265e-06,-6.415440678772502e-08,8.33265573230254e-06
3.839724354387525,-1.2103856808462171e-05,-6.776724758761347e-08,1.2036089560874558e-05
3.8746309394274117,-1.5392938777218866e-05,-7.126960654089793e-08,1.5321669170677967e-05
3.9095375244672983,-1.8270447756046985e-05,-7.465969876550765e-08,1.8195788057281477e-05
3.944444109507185,-2.073875697412063e-05,-7.793543807690027e-08,2.066082153604373e-05
3.9793506945470716,-2.2795892508403132e-05,-8.109452744556256e-08,2.271479798095757e-05
4.014257279586958,-2.4435036961949413e-05,-8.413452764212067e-08,2.4350902434307294e-05
4.049163864626845,-2.5643817688570386e-05,-8.705291017756836e-08,2.5556764778392816e-05
4.084070449666731,-2.64033098548279e-05,-8.9847098694092e-08,2.6313462756133807e-05
4.118977034706618,-2.6686652088233594e-05,-9.251450169799571e-08,2.65941375865356e-05
4.153883619746504,-2.64571229604929e-05,-9.505253866864637e-08,2.6362070421824255e-05
4.1887902047863905,-2.5665449439658107e-05,-9.745866099585054e-08,2.5567990778662256e-05
4.223696789826278,-2.4245995250744488e-05,-9.973036879056084e-08,2.4146264881953928e-05
4.258603374866164,-2.211127484113607e-05,-1.0186522432032595e-07,2.2009409616815746e-05
4.293509959906051,-1.9143896481491668e-05,-1.0386086260599108e-07,1.9040035618885676e-05
4.328416544945937,-1.518443924588823e-05,-1.0571499955192631e-07,1.5078724246336303e-05
4.363323129985824,-1.0012679742054617e-05,-1.0742543785809693e-07,9.90525430419652e-06
4.39822971502571,-3.317515057491889e-06,-1.0899007084970794e-07,3.208524986642181e-06
4.4331363000655974,5.353211882628932e-06,-1.1040688426953885e-07,-5.57068300455105e-06
4.468042885105484,1.668058030601212e-05,-1.1167395598243477e-07,-1.7125865868114797e-05
4.50294947014537,3.1737878433816895e-05,-1.1278945345151873e-07,-3.248542545594475e-05
4.537856055185257,5.231739345531212e-05,-1.1375162873252632e-07,-5.347749295315089e-05
4.572762640225143,8.16499178497642e-05,-1.1455881060229508e-07,-8.339747501736178e-05
4.60766922526503,0.00012620539930756968,-1.152093932773251e-07,-0.00012884471668699838
4.642575810304916,0.0002011031727743759,-1.1570182094923713e-07,-0.00020524093805081262
4.6774823953448035,0.000351808753684754,-1.1603456707280967e-07,-0.0003589609633255219
4.71238898038469,0.0007207353422694869,-1.1620610691499199e-07,-0.0007352662552217916
4.747295565424577,0.0007715954115684989,-1.162148812802299e-07,-0.0007871435346811491
4.782202150464463,0.0008095705202803375,-1.1605924844892981e-07,-0.0008258779899343932
4.817108735504349,0.0008435093007421997,-1.1573742006434199e-07,-0.000860495224177108
4.852015320544236,0.0008753824234336122,-1.1524737472775318e-07,-0.0008930053192770123
4.886921905584122,0.000906010899937756,-1.1458673998508836e-07,-0.0009242457046764963
4.9218284906240095,0.0009358202922138631,-1.1375262848712575e-07,-0.0009546504506866275
4.956735075663896,0.0009650577705230581,-1.1274140609341394e-07,-0.0009844716673396126
4.991641660703783,0.000993876516069689,-1.1154835615908623e-07,-0.0010138655947472418
5.026548245743669,0.001022374832837186,-1.1016718065776927e-07,-0.0010429324966745876
5.061454830783556,0.0010506165362977363,-1.0858923604468437e-07,-0.0010717374562597358
5.096361415823442,0.00107864253047381,-1.0680232086848807e-07,-0.0011003221834041546
5.1312680008633285,0.0011064778258692808,-1.0478867125695553e-07,-0.0011287121710579233
5.1661745859032155,0.0011341360206709255,-1.0252148140431096e-07,-0.0011569212625657484
5.201081170943102,0.0011616222866116601,-9.995850189019911e-08,-0.0011849546908457836
5.235987755982989,0.001188935430883145,-9.70294007331526e-08,-0.001212811168901541
5.270894341022875,0.0012160693643349116,-9.360853317757806e-08,-0.0012404843601547875
5.305800926062762,0.001243014175293151,-8.944926198396038e-08,-0.001267963908060998
5.340707511102648,0.0012697569338339866,-8.399359168275288e-08,-0.0012952360661023492
5.375614096142535,0.0012962823072068662,-6.95436585924582e-08,-0.001322277497009596
5.410520681182422,0.0013225730400272192,1.207584633870107e-08,-0.001349012424981425
5.445427266222308,0.0013486103357369323,2.439558074155392e-07,-0.0013753385866442556
5.480333851262195,0.001374374164712894,8.377088424590082e-07,-0.0014010239391646928
5.515240436302081,0.0013998435170105696,2.2119720932572097e-06,-0.0014256284152575236
5.550147021341968,0.0014249966127080189,4.75274890970259e-06,-0.0014487437960524767
5.585053606381854,0.0014498110793395057,8.664114066201173e-06,-0.0014701431868600946
5.619960191421741,0.0014742641034596266,1.4203133360663563e-05,-0.0014895462521681555
5.654866776461628,0.0014983325616272803,2.1637721750244212e-05,-0.0015066614911095817
5.689773361501515,0.0015219931348277084,3.121572821202838e-05,-0.001521217269312234
5.724679946541401,0.0015452224094160668,4.318788854847907e-05,-0.001532938969055909
5.759586531581287,0.0015679969669703398,5.7815451574480095e-05,-0.0015415414547352664
5.794493116621174,0.0015902934649176994,7.534926610478037e-05,-0.001546750068111273
5.82939970166106,0.0016120887094001751,9.599792551400975e-05,-0.0015483325580741688
5.8643062867009474,0.0016333597215395727,0.00011990082531722282,-0.0015461260906531413
5.899212871740834,0.00165408379802443,0.00014711244472767035,-0.0015400530292572483
5.934119456780721,0.0016742385667563942,0.00017759817952275,-0.001530125158568772
5.969026041820607,0.0016938020381471177,0.00021124048718427772,-0.0015164375917257826
6.003932626860494,0.0017127526525405079,0.0002478540732494707,-0.0014991536323418473
6.03883921190038,0.001731069324141892,0.0002872085191098841,-0.0014784821915148456
6.073745796940266,0.0017487314817602854,0.0003290567900243001,-0.001454649321371191
6.1086523819801535,0.0017657191066083947,0.000373170589183295,-0.0014278628995572677
6.14355896702004,0.0017820127673543306,0.00041939263113172304,-0.0013982603915696941
6.178465552059927,0.0017975936525767432,0.0004677473148807918,-0.0013657982107474864
6.213372137099813,0.0018124436007394464,0.0005187951518519284,-0.001329897320902307
6.2482787221397,0.001826545127771069,0.0005754536747386023,-0.0012876223555878881
