theta,z_plus,z_plus_cvec,lambda_top,edge_margin
0.0,1.0111529180025802,5.024795219513908,0.001963217356501762,-1.0122231594000861
0.05235987755982988,1.0621065366891245,5.070246463834954,0.0021771134693945836,-1.0631157428297973
0.10471975511965977,1.1101558367376534,5.10180371505001,0.0024539423722375444,-1.1110323618756288
0.15707963267948966,1.1551691840458058,5.119380512533453,0.002804748052656839,-1.1558299435452866
0.20943951023931953,1.1970233103664718,5.122928739817668,0.0032299127079740567,-1.1973844675895973
0.2617993877991494,1.2356036535694386,5.1124387582516855,0.0037182091049945054,-1.2355922554251524
0.3141592653589793,1.2708046751107442,5.087939436044296,0.004252602272008479,-1.270364486864068
0.36651914291880916,1.3025301539687335,5.049498072770259,0.004816521893390444,-1.3016212225372492
0.41887902047863906,1.330693456416607,4.997220219774884,0.00539663955108791,-1.3292888972347692
0.47123889803846897,1.3552177811210582,4.931249397291667,0.005982998640373469,-1.353300435824048
0.5235987755982988,1.3760363791865682,4.851766709499819,0.006568248246833459,-1.3735962400772945
0.5759586531581287,1.393092748905816,4.7589903592102365,0.007146853418775769,-1.3901251737337577
0.6283185307179586,1.4063408051278,4.653175064404481,0.007714507155186621,-1.4028453203879967
0.6806784082777885,1.4157450233138602,4.53461137950153,0.008267736321281274,-1.4117245220625205
0.7330382858376183,1.4212805585100383,4.403624925054299,0.008803646852106332,-1.416740753333462
0.7853981633974483,1.4229333396060668,4.26057553068416,0.009319760250045848,-1.4178823793748392
0.8377580409572781,1.4207001393456398,4.105856297613678,0.009813908175227235,-1.4151483315884494
0.890117918517108,1.4145886205432043,3.9398925894329433,0.010284163849571336,-1.4085482225552626
0.9424777960769379,1.404617358752599,3.7631409632006494,0.010728796958566801,-1.39810241387029
0.9948376736367678,1.3908158410639595,3.5760880584333323,0.011146243733147685,-1.3838420448540036
1.0471975511965976,1.373224439534092,3.379249470336859,0.011535086971774168,-1.3658090258809201
1.0995574287564276,1.3518943556409442,3.1731686480941974,0.011894042657089654,-1.3440559960507774
1.1519173063162573,1.3268875286890112,2.958415882927921,0.012221950997372024,-1.3186462402777062
1.2042771838760873,1.2982764959596822,2.7355874895757024,0.01251777046236827,-1.289653554985193
1.2566370614359172,1.2661441857519506,2.505305344333804,0.012780573855053622,-1.2571620444541527
1.308996938995747,1.2305836176560836,2.268217017055,0.013009545766950657,-1.2212658227421014
1.361356816555577,1.1916974809981529,2.024996758825264,0.013203980966430075,-1.1820685924747172
1.413716694115407,1.149597568613886,1.7763473066632114,0.0133632834046453,-1.1396830779150824
1.4660765716752366,1.1044040660941083,1.5230010454533736,0.013486965615908297,-1.0942303126764825
1.5184364492350666,1.0562447385725307,1.2657154124886378,0.013574648353218866,-1.0458388244350294
1.5707963267948966,1.0052541067830363,1.0052541067830365,0.013626060344817264,-0.9946438087585681
1.6231562043547263,0.9515727344946372,0.7423556116301993,0.013641038090238498,-0.9407864146078826
1.6755160819145563,0.8953467320541354,0.4777150397483,0.01361952563852278,-0.884413246611775
1.7278759594743862,0.8367275120248338,0.2119990662914528,0.013561574309778876,-0.8256761202511294
1.780235837034216,0.7758717458069669,-0.05412672111233453,0.013467342336170855,-0.7647320187082169
1.832595714594046,0.71294141174698,-0.31998338297326634,0.013337094411048352,-0.7017431415711726
1.8849555921538759,0.6481038198957129,-0.584878072112112,0.013171201146507546,-0.6368769302088925
1.9373154697137056,0.5815315346638262,-0.8481090110729061,0.012970138451152056,-0.5703059908166657
1.9896753472735356,0.5134021647937196,-1.10897102419568,0.012734486852207037,-0.5022078844358937
2.0420352248333655,0.44389802732327094,-1.3667602006438666,0.012464930800532525,-0.43276479060470824
2.0943951023931953,0.37320571111712775,-1.6207776421586857,0.01216225801486747,-0.3621630702356117
2.146754979953025,0.3015155696294807,-1.8703325419895631,0.011827358944674057,-0.29059275739369506
2.199114857512855,0.22902116862159516,-2.1147448184737967,0.01146122646187996,-0.21824700566557997
2.251474735072685,0.1559187080122967,-2.3533474545884667,0.011064955934495326,-0.14532150820183826
2.3038346126325147,0.08240643085232582,-2.5854886367197256,0.010639745895310727,-0.07201390424957207
2.356194490192345,0.008684027668988036,-2.8105337478919674,0.01018689960553584,0.0014768198535408394
2.4085543677521746,-0.06504795879403652,-3.027867247429825,0.009707827940137512,0.07475578673417403
2.4609142453120043,-0.13858872541932699,-3.2368944550689385,0.00920405421065041,0.1477927796299774
2.5132741228718345,-0.2117377952690518,-3.437043249180421,0.00867722182751543,0.22041501709656722
2.5656340004316642,-0.2842955975824551,-3.6277656837561256,0.008129106144879075,0.29242470372733415
2.617993877991494,-0.3560640402298723,-3.8085395257728294,0.0075616325210485814,0.3636256727509209
2.670353755551324,-0.4268470737318692,-3.978869712725483,0.006976903725856397,0.4338239774577256
2.722713633111154,-0.496451245954118,-4.138289729028509,0.00637724159840918,0.5028284875525272
2.7750735106709836,-0.5646862465482708,-4.2863628993533265,0.005765250751207344,0.5704514972994782
2.827433388230814,-0.6313654401552051,-4.422683596632708,0.005143916858836049,0.6365093570140412
2.8797932657906435,-0.6963063873348632,-4.546878362315721,0.004516759771750813,0.700823147106614
2.9321531433504733,-0.7593313521435333,-4.6586069364367,0.0038880737187923517,0.7632194258623257
2.9845130209103035,-0.8202677952476541,-4.757563195126946,0.0032633035459494458,0.8235310987936035
3.036872898470133,-0.8789488514434718,-4.843475993322341,0.0026496210347396803,0.8815984724782114
3.089232776029963,-0.9352137904433255,-4.916109910585884,0.002056747170390317,0.9372705376137158
3.141592653589793,-0.9889084597906599,-4.975265898159371,0.0014979103197558267,0.9904063701104158
3.193952531149623,-1.0398857087755868,-5.0207818255743435,0.0009903147188590965,1.0408760234944459
3.2463124087094526,-1.0880057922393307,-5.0525329253829305,0.0005535656041108602,1.0885593578434416
3.2986722862692828,-1.1331367531776397,-5.070432134808791,0.00020445819659926543,1.133341211374239
3.3510321638291125,-1.175154783078739,-5.07443033336329,6.712845255373248e-19,1.175154783078739
3.4033920413889422,-1.2139445589590618,-5.064516475717718,5.3094840566691355e-19,1.2139445589590618
3.4557519189487724,-1.2493995560882771,-5.040717619364608,6.497774772793721e-19,1.2493995560882771
3.508111796508602,-1.2814223354224534,-5.0030988468352176,7.35658493346713e-19,1.2814223354224534
3.560471674068432,-1.3099248047888692,-4.951763082459109,8.991233684375274e-19,1.3099248047888692
3.612831551628262,-1.3348284528863525,-4.886850803847454,1.3202489633256191e-18,1.3348284528863525
3.665191429188092,-1.356064555179644,-4.808539648441789,1.219279257913673e-18,1.356064555179644
3.7175513067479216,-1.3735743507739921,-4.717043915576836,1.0270293263490225e-18,1.3735743507739921
3.7699111843077517,-1.3873091893571248,-4.612613964533368,1.1693322374095803e-18,1.3873091893571248
3.8222710618675815,-1.3972306472919949,-4.495535508963984,1.2462863440175043e-18,1.3972306472919949
3.874630939427411,-1.4033106119417817,-4.366128807797501,1.842432984265621e-18,1.4033106119417817
3.9269908169872414,-1.4055313333224841,-4.224747752164175,2.3859006667862307e-18,1.4055313333224841
3.979350694547071,-1.4038854422355749,-4.0717788468681775,1.5511268365391308e-18,1.4038854422355749
4.031710572106901,-1.3983759341835558,-3.907640083190521,1.3455705900958099e-18,1.3983759341835558
4.084070449666731,-1.3890161187014642,-3.732779696873186,1.750315156674974e-18,1.3890161187014642
4.13643032722656,-1.375829534389937,-3.5476748002280862,2.40494090612386e-18,1.375829534389937
4.1887902047863905,-1.3588498311315416,-3.35282986909052,2.730467034056975e-18,1.3588498311315416
4.241150082346221,-1.3381206230278775,-3.148775051517953,2.2864081158966654e-18,1.3381206230278775
4.29350995990605,-1.3136953189030343,-2.936064241981232,2.095094714149791e-18,1.3136953189030343
4.34586983746588,-1.285636942135485,-2.7152728267591018,1.952550608553551e-18,1.285636942135485
4.39822971502571,-1.2540179581097672,-2.4869949475640736,3.750882879768882e-18,1.2540179581097672
4.45058959258554,-1.218920134733558,-2.251840055859249,2.5109951671545357e-18,1.218920134733558
4.50294947014537,-1.1804344663043211,-2.0104285000326985,2.53486577649645e-18,1.1804344663043211
4.5553093477052,-1.1386611878690167,-1.7633861634534487,2.0622714875491594e-18,1.1386611878690167
4.607669225265029,-1.0937098886220669,-1.5113395317882197,2.7656149448394826e-18,1.0937098886220669
4.6600291028248595,-1.0456996942771388,-1.2549161916290474,2.5734606856066045e-18,1.0456996942771388
4.71238898038469,-0.9947594367588798,-0.9947594367588806,2.8739970699016857e-18,0.9947594367588798
4.764748857944519,-0.9410276895277062,-0.7315563887381256,4.964525792185154e-05,0.941077334785628
4.817108735504349,-0.8846525511235516,-0.4660535161909668,0.00010202282713530436,0.8847545739506869
4.869468613064179,-0.8257911219368619,-0.1990379043913597,0.00015643214470990738,0.8259475540815718
4.921828490624009,-0.7646087133041793,0.06869500336996881,0.00021232808785907236,0.7648210413920384
4.974188368183839,-0.7012779014961947,0.3363603682597556,0.0002692735825776494,0.7015471750787724
5.026548245743669,-0.6359775560697325,0.6031884911661123,0.00032690686285108476,0.6363044629325836
5.078908123303498,-0.5688919377492959,0.8684236933811019,0.0003849199015662185,0.5692768576508621
5.1312680008633285,-0.5002099075875241,1.131322681669539,0.0004430445053811457,0.5006529520929053
5.183627878423159,-0.43012424558360174,1.3911538109829564,0.0005010435399117598,0.4306252891235135
5.235987755982988,-0.35883105417407407,1.647197254737712,0.0005587056666414434,0.35938975984071553
5.288347633542818,-0.28652921678576493,1.8987458094537022,0.0006158426508843417,0.28714505943664925
5.340707511102648,-0.21341988601658854,2.1451060923181835,0.0006722887992189009,0.21409217481580745
5.393067388662478,-0.1397059834710027,2.385599966897379,0.0007279025055603511,0.14043388597656303
5.445427266222308,-0.06559170028782965,2.61956609233043,0.0007825703365964008,0.06637427062442605
5.497787143782138,0.008718007294048077,2.846361530286011,0.0008362147028514956,-0.007907946613078726
5.550147021341967,0.08301792944007497,3.0653633677457788,0.000888807127336661,-0.08237817610105853
5.602506898901797,0.15710312123957737,3.2759703279982983,0.0009403906834576484,-0.15663403991983846
5.654866776461628,0.23076942697288227,3.4776043508995764,0.000991117457377473,-0.23047061779642344
5.707226654021457,0.3038140082448062,3.6697121287973693,0.0010413089959104397,-0.3036841412736302
5.759586531581287,0.3760358738435893,3.8517665878853777,0.0010915445702620043,-0.37607243689485803
5.811946409141117,0.4472364091215961,4.0232683069437325,0.001142758922518322,-0.4474353594264426
5.864306286700947,0.5172199027337231,4.18374686689881,0.0011962738542555507,-0.5175752885876687
5.916666164260777,0.5857940686571507,4.332762125674211,0.001253662594393396,-0.5862977882687287
5.969026041820607,0.6527705615224367,4.469905413571599,0.001316526670853473,-0.6534123465361505
6.021385919380436,0.7179654833960186,4.5948006450165835,0.0013865043812044207,-0.7187328754650022
6.073745796940266,0.7811998802610174,4.7071053429931515,0.0014656438410688452,-0.7820778360607316
6.126105674500097,0.8423002265445304,4.806511572910138,0.0015569649959530846,-0.8432701622282109
6.178465552059926,0.9010988961352252,4.892746783019969,0.0016651078773418247,-0.902137084946289
6.230825429619756,0.9574346184258338,4.965574548859249,0.0017971087859884616,-0.9585098134951228
