theta,z_plus,lambda_top,edge_margin
0.0,0.0013539012421837939,0.0008513117437730581,-0.0005296675232544115
0.03490658503988659,0.0013623374224552777,0.0012051545159233465,-0.0001844296549810367
0.06981317007977318,0.0013702182391736113,0.0015926197443122997,0.0001949971403552161
0.10471975511965978,0.0013775339139301024,0.0019964181968732658,0.0005913336046645614
0.13962634015954636,0.0013842751916329815,0.002407870277666266,0.000995909582200625
0.17453292519943295,0.001390433349379784,0.00282238581832885,0.0014041438019614706
0.20943951023931956,0.0013960002035449516,0.0032372752406395764,0.0018133550330237257
0.24434609527920614,0.0014009681150149755,0.003650782996810459,0.0022217955194951838
0.2792526803190927,0.001405329992484336,0.004061645584018749,0.0026282089916847265
0.3141592653589793,0.0014090792937039142,0.004468876652379517,0.0030316157728015243
0.3490658503988659,0.00141221002454869,0.004871655894242501,0.0034312016692028373
0.3839724354387525,0.001414716735742316,0.00526926835212253,0.0038262572816653677
0.4188790204786391,0.001416594517041351,0.005661069674053724,0.004216143266671546
0.4537856055185257,0.0014178389886399503,0.006046465428794915,0.004600269660382166
0.4886921905584123,0.001418446289504591,0.006424898392382158,0.004978083177087475
0.5235987755982988,0.0014184130622853879,0.006795840536460054,0.005349059212928959
0.5585053606381855,0.0014177364343722443,0.007158787887240878,0.005712696724181189
0.5934119456780721,0.001416413994566023,0.0075132571905677115,0.006068514916110369
0.6283185307179586,0.0014144437647110625,0.007858783743344092,0.006416051103338809
0.6632251157578453,0.001411824165477652,0.008194919995292697,0.006754859346505492
0.6981317007977318,0.0014085539752804988,0.008521234669242008,0.0070845096144558995
0.7330382858376184,0.0014046322810567092,0.008837312235936829,0.007404587309258985
0.767944870877505,0.001400058419283421,0.009142752634181468,0.007714693046512379
0.8028514559173916,0.001394831905161491,0.009437171162141631,0.00801444261887691
0.8377580409572782,0.0013889523472857114,0.009720198488475936,0.00830346709424451
0.8726646259971648,0.0013824193443034002,0.009991480747160431,0.008581413015970964
0.9075712110370514,0.0013752323589433242,0.010250679690153813,0.008847942684031622
0.9424777960769379,0.0013673905632439855,0.010497472879127345,0.00910273450461848
0.9773843811168246,0.0013588926466246711,0.01073155390242716,0.009345483402869996
1.0122909661567112,0.0013497365753161108,0.010952632606941251,0.009575901300118818
1.0471975511965976,0.0013399192871141555,0.011160435337059939,0.0097937176642035
1.0821041362364843,0.0013294362986553206,0.011354705174751253,0.009998680150122827
1.117010721276371,0.0013182811921388388,0.011535202176121768,0.010190555360140153
1.1519173063162575,0.0013064449324230979,0.0117017036008412,0.010369129769769642
1.1868238913561442,0.0012939149398098165,0.011854004131568206,0.010534210892962192
1.2217304763960306,0.001280673801484542,0.011991916081096853,0.01068562880358262
1.2566370614359172,0.0012666974319630376,0.012115269585392321,0.010823238204790022
1.2915436464758039,0.0012519523629264662,0.012223912781036687,0.010946921370851691
1.3264502315156905,0.0012363915982310783,0.012317711965886725,0.011056592535691025
1.361356816555577,0.0012199479809742331,0.012396551741970909,0.011152204801377191
1.3962634015954636,0.0012025229676637169,0.012460335139838831,0.01123376171282184
1.4311699866353502,0.0011839662230263895,0.012508983723730865,0.011301338176243948
1.4660765716752369,0.001164034851261591,0.012542437677067461,0.011355122128780638
1.5009831567151235,0.0011423004443253029,0.012560655867872417,0.011395509414660608
1.53588974175501,0.0011178903481875015,0.012563615893845873,0.011423367738694621
1.5707963267948966,0.0010884737592716852,0.012551314106896402,0.011441070872439283
1.6057029118347832,0.0010438342530460323,0.012523765617028351,0.011459054678921398
1.6406094968746698,0.0009762990332448035,0.012481004275564807,0.011485179261655107
1.6755160819145565,0.0009141624295152071,0.012423082637770293,0.011490636959664782
1.710422666954443,0.0008630846149819793,0.012350071905022367,0.011469725597740748
1.7453292519943295,0.0008208655922056519,0.012262061846770929,0.011424778942721163
1.7802358370342162,0.0007851827807740061,0.012159160702621505,0.011358274266232019
1.8151424220741028,0.0007543209193047289,0.012041495064985669,0.011272087727294846
1.8500490071139892,0.0007270682802016697,0.011909209742864711,0.011167600097059008
1.8849555921538759,0.0007025634052240625,0.011762467607474354,0.011045852934145811
1.9198621771937625,0.0006801826899325387,0.011601449420587405,0.010907663076856216
1.9547687622336491,0.0006594655954356847,0.011426353646674846,0.010753698739330447
1.9896753472735358,0.0006400654814522428,0.011237396250176585,0.010584529459095297
2.0245819323134224,0.0006217169144286674,0.011034810479546454,0.010400659226829213
2.059488517353309,0.0006042135262770437,0.010818846640111894,0.01020254884330931
2.0943951023931953,0.0005873927145543266,0.010589771858298184,0.00999063128945277
2.129301687433082,0.0005711248591122129,0.010347869840428509,0.009765322484134052
2.1642082724729685,0.0005553055783292125,0.01009344063018238,0.009527028940286585
2.199114857512855,0.000539850070080559,0.009826800369955209,0.009276153298473038
2.234021442552742,0.0005246889084012479,0.009548281072927274,0.009013098386358002
2.2689280275926285,0.0005097648736233049,0.009258230414786916,0.008738270243691145
2.303834612632515,0.0004950305274345643,0.008957011557008256,0.008452080419025001
2.3387411976724017,0.00048044633221423175,0.008645003017723266,0.00815494775886475
2.3736477827122884,0.0004659791727692008,0.00832259861211047,0.007847299855885885
2.4085543677521746,0.00045160117846302906,0.00799020749270326,0.00752957429067097
2.443460952792061,0.000437288771102298,0.007648254332443118,0.007202219785918775
2.478367537831948,0.00042302188288335284,0.007297179711810434,0.006865697391269415
2.5132741228718345,0.00040878330179965224,0.006937440799451151,0.0065204818316155055
2.548180707911721,0.0003945581108131739,0.00656951245919947,0.006167063186170032
2.5830872929516078,0.000380333192806437,0.006193888985209412,0.005805949128546846
2.6179938779914944,0.00036609677637747614,0.005811086778460104,0.005437668066555078
2.652900463031381,0.00035183799801350357,0.005421648463612656,0.005062773705638883
2.6878070480712677,0.0003375464536899001,0.005026149263625185,0.004681851880861487
2.722713633111154,0.00032321170639945283,0.004625207013736437,0.004295531073208994
2.7576202181510405,0.00030882270323038424,0.004219498233423286,0.0039044990761282943
2.792526803190927,0.00029436703178599893,0.0038097846606652023,0.003509530288243483
2.827433388230814,0.00027982990161151737,0.003396958633425859,0.003111532133782111
2.8623399732707004,0.00026519265192601185,0.0029821240977707386,0.0027116275928062063
2.897246558310587,0.00025043041715521857,0.002566748722169442,0.0023113096966711193
2.9321531433504737,0.00023550821561619173,0.0021529666205971796,0.001912748240668664
2.9670597283903604,0.00022037386328846578,0.0017442194155291363,0.0015194380749749012
3.001966313430247,0.00020494382397415905,0.0013466863829581129,0.0011376436825044707
3.036872898470133,0.00018907096051276224,0.0009724416667793356,0.0007795892870563182
3.07177948351002,0.0001724547571158495,0.0006446328196778065,0.00046872896741964
3.1066860685499065,0.00015428214914538094,0.0003947651270596905,0.00023739733493140195
3.141592653589793,0.0002508664725463244,0.00023237859830138854,-2.3505203695862396e-05
3.1764992386296798,0.00013251934109964042,0.00013300560341272756,-2.164124508905656e-06
3.2114058236695664,0.00012077628247630615,7.260139074330676e-05,-5.05904173825255e-05
3.246312408709453,0.00010984271873899635,3.710313515484478e-05,-7.493643795893149e-05
3.2812189937493397,9.965772250519925e-05,1.6180028477497793e-05,-8.547084847780544e-05
3.3161255787892263,9.016675482710298e-05,4.036555795146255e-06,-8.793353412849878e-05
3.351032163829113,8.132095359342929e-05,-3.282286726030913e-09,-8.295065495202391e-05
3.385938748868999,7.307652264326074e-05,-9.462611294016174e-09,-7.454751570741998e-05
3.420845333908886,6.539420732091567e-05,-1.4755454250225197e-08,-6.671684692158422e-05
3.4557519189487724,5.823884476689508e-05,-1.967569556649466e-08,-5.942329735779948e-05
3.490658503988659,5.1578979384552014e-05,-2.4358996745255025e-08,-5.263491796898831e-05
3.5255650890285457,4.538653574089352e-05,-2.8865470840809434e-08,-4.632313192655219e-05
3.5604716740684323,3.963654273206959e-05,-3.3226919592472773e-08,-4.0462500506303456e-05
3.595378259108319,3.430690423773865e-05,-3.7461631503943595e-08,-3.503050395399736e-05
3.6302848441482056,2.937821276493548e-05,-4.1580497870879316e-08,-3.0007357518105072e-05
3.6651914291880923,2.483360379997405e-05,-4.5589982531176705e-08,-2.5375865858504707e-05
3.7000980142279785,2.0658649806618108e-05,-4.9493729007021773e-08,-2.1121316531757494e-05
3.735004599267865,1.6841294097186864e-05,-5.3293501678645647e-08,-1.7231413480809248e-05
3.7699111843077517,1.3371826240228878e-05,-5.6989771317334745e-08,-1.369625253635079e-05
3.8048177693476384,1.0242902354972367e-05,-6.058209730743848e-08,-1.0508342499379252e-05
3.839724354387525,7.449615713288658e-06,-6.406938715394166e-08,-7.662677414708374e-06
3.8746309394274117,4.989625709582493e-06,-6.74500785620227e-08,-5.1568683023361655e-06
3.9095375244672983,2.8633567305493347e-06,-7.072227081224701e-08,-2.9913461359725685e-06
3.944444109507185,1.0742831414342483e-06,-7.388382186136284e-08,-1.169652626124296e-06
3.9793506945470716,-3.7067693192205187e-07,-7.693242162787892e-08,2.9374451029417294e-07
4.014257279586958,-1.460627252953754e-06,-7.986564831717415e-08,1.3807616046365798e-06
4.049163864626845,-2.1799737498605345e-06,-8.268101239737697e-08,2.0972927374631577e-06
4.084070449666731,-2.5074555812883036e-06,-8.537599139457386e-08,2.42207958989373e-06
4.118977034706618,-2.4148348472335855e-06,-8.794805772560931e-08,2.326886789507976e-06
4.153883619746504,-1.8651098402901978e-06,-9.03947011467934e-08,1.7747151391434045e-06
4.1887902047863905,-8.100501338551544e-07,-9.271344695331211e-08,7.173366869018423e-07
4.223696789826278,8.132538746077003e-07,-9.490187075421834e-08,-9.244208228540726e-07
4.258603374866164,3.087306409447601e-06,-9.695761042191193e-08,-3.246010148058465e-06
4.293509959906051,6.121354497544655e-06,-9.887837565014763e-08,-6.342659963145696e-06
4.328416544945937,1.0062035548531468e-05,-1.0066195543086746e-07,-1.0363938214932965e-05
4.363323129985824,1.5109686646254657e-05,-1.0230622365908036e-07,-1.551418660283883e-05
4.39822971502571,2.154415477644425e-05,-1.0380914299683123e-07,-2.2078847014969967e-05
4.4331363000655974,2.9767243924753495e-05,-1.0516876705736521e-07,-3.046775757030593e-05
4.468042885105484,4.037579902598653e-05,-1.0638324090572188e-07,-4.128969824741198e-05
4.50294947014537,5.4294733442352424e-05,-1.0745079980953261e-07,-5.548807891100901e-05
4.537856055185257,7.303642064530769e-05,-1.0836976610592177e-07,-7.460551882431976e-05
4.572762640225143,9.925280519090237e-05,-1.0913854397215453e-07,-0.00010134699983869258
4.60766922526503,0.00013805485645562753,-1.0975561179765112e-07,-0.00014092570919653773
4.642575810304916,0.00020071864147787417,-1.10219511734542e-07,-0.0002048432338191662
4.6774823953448035,0.0003179878659419817,-1.10528835856799e-07,-0.0003244581520966781
4.71238898038469,0.0005724132764630134,-1.1068220815061928e-07,-0.0005839722242004244
4.747295565424577,0.0006111165389069707,-1.1067826128313864e-07,-0.0006234495479463933
4.782202150464463,0.0006388800091404579,-1.1051560670796194e-07,-0.000651768124929975
4.817108735504349,0.0006634000349433947,-1.1019279610638611e-07,-0.000676778228438369
4.852015320544236,0.0006862616268002939,-1.0970827135531109e-07,-0.0007000965676076551
4.886921905584122,0.0007081151934557215,-1.0906029899373595e-07,-0.0007223865576238297
4.9218284906240095,0.0007292962635044979,-1.0824688330072595e-07,-0.0007439904356578886
4.956735075663896,0.0007499998217129641,-1.0726564915841642e-07,-0.0007651070837963817
4.991641660703783,0.0007703472957661603,-1.061136810854117e-07,-0.0007858603553625689
5.026548245743669,0.0007904173639560458,-1.0478729672816871e-07,-0.0008063304985318949
5.061454830783556,0.000810261930346364,-1.0328171879515167e-07,-0.0008265704506720866
5.096361415823442,0.0008299151599784622,-1.0159058285897237e-07,-0.0008466150537608904
5.1312680008633285,0.0008493989388971938,-9.970516606368944e-08,-0.0008664866228412014
5.1661745859032155,0.0008687263515645822,-9.761311080601378e-08,-0.00088619849170668
5.201081170943102,0.000887903992664961,-9.529616097028801e-08,-0.0009057573686792305
5.235987755982989,0.0009069335602362653,-9.272576827936875e-08,-0.00092516495720927
5.270894341022875,0.0009258129878072944,-8.985348212653069e-08,-0.0009444191010455668
5.305800926062762,0.0009445372707640588,-8.658621932401825e-08,-0.000963514602398664
5.340707511102648,0.000963099083990987,-8.270637753094719e-08,-0.0009824437720483377
5.375614096142535,0.0009814892534294112,-7.751292969480126e-08,-0.0010011965514276943
5.410520681182422,0.0009996971231260809,-6.70147131705794e-08,-0.0010197580803017732
5.445427266222308,0.0010177108460408851,-3.070862007028449e-09,-0.0010380681338237098
5.480333851262195,0.0010355176182541166,3.1204155399710633e-07,-0.0010559159290652019
5.515240436302081,0.001053103870481935,1.2321587413961128e-06,-0.0010729337891501774
5.550147021341968,0.0010704554269194166,2.6824563942986928e-06,-0.0010891820790635063
5.585053606381854,0.0010875576387404525,4.566006980530391e-06,-0.0011047427845347312
5.619960191421741,0.0011043954976905767,6.846953501424921e-06,-0.0011196364541429633
5.654866776461628,0.0011209537338552533,9.531806526915587e-06,-0.0011338410020054427
5.689773361501515,0.0011372169007044927,1.2664150313656395e-05,-0.0011472970884049262
5.724679946541401,0.0011531694497931174,1.6327801486290915e-05,-0.0011599050373026886
5.759586531581287,0.0011687957969593135,2.065454588141477e-05,-0.001171517167017085
5.794493116621174,0.0011840803814602218,2.582893503146619e-05,-0.00118193305405796
5.82939970166106,0.0011990077191763127,3.2076456673549354e-05,-0.0011909114168862896
5.8643062867009474,0.0012135624507805369,3.962606029960899e-05,-0.0011982076394965388
5.899212871740834,0.0012277293855855315,4.866590199303835e-05,-0.001203618071304204
5.934119456780721,0.0012414935416393386,5.932960393833704e-05,-0.0012069938085337885
5.969026041820607,0.0012548401825274468,7.172228164625668e-05,-0.0012082147045317391
6.003932626860494,0.001267754851249419,8.596986754248455e-05,-0.001207140080731923
6.03883921190038,0.0012802234014665586,0.00010230527511267903,-0.0012035225943832109
6.073745796940266,0.0012922320263590035,0.00012132524846839685,-0.0011967514184177866
6.1086523819801535,0.0013037672852832544,0.0001450874270089818,-0.0011847552039799376
6.14355896702004,0.0013148161283820852,0.0001812110208317771,-0.0011599014301179498
6.178465552059927,0.0013253659192662462,0.00024600394780854645,-0.0011058692898430248
6.213372137099813,0.0013354044558598773,0.00036249072310314077,-0.0009996218218739342
6.2482787221397,0.0013449199894779895,0.0005612612714267977,-0.0008105571178407516
