theta,z_plus,z_plus_cvec,lambda_top,edge_margin
0.0,1.010735350763097,5.0238719640094445,0.001427078906777757,-1.0123404779086085
0.05235987755982988,1.0616894114810942,5.069324410348482,0.001557841771247267,-1.0633166379442902
0.10471975511965977,1.1097400361345757,5.100885264135635,0.001774726342290442,-1.1112945299006889
0.15707963267948966,1.1547555845118052,5.118468053543853,0.0021147010658018866,-1.1561051501995387
0.20943951023931953,1.1966127782032796,5.122024643440568,0.0025812183456816627,-1.1976213981922077
0.2617993877991494,1.2351970408012054,5.111545369031494,0.003141379208562135,-1.2357612527150468
0.3141592653589793,1.2704028152779558,5.0870590648779315,0.0037567510898245376,-1.2704572726339654
0.36651914291880916,1.302133857797883,5.048632989360346,0.004400228389189641,-1.3016400309820868
0.41887902047863906,1.3303035073259846,4.996372645015161,0.0050552158639705636,-1.329239201983992
0.47123889803846897,1.3548349305148197,4.930421495547619,0.005711467705193974,-1.3531879676011702
0.5235987755982988,1.3756613414788361,4.850960580731082,0.006362235176043531,-1.373426090327229
0.5759586531581287,1.3927261962035453,4.758208030858203,0.0070027105819899585,-1.389901664210166
0.6283185307179586,1.4059833614852837,4.652418482935927,0.007629210110471933,-1.4025721014592676
0.6806784082777885,1.4153972584527115,4.533882401452584,0.008238737579534746,-1.411404712648535
0.7330382858376183,1.420942980876442,4.402925307351948,0.008828743981412927,-1.4163770658376584
0.7853981633974483,1.4226063886126608,4.2599069199241315,0.009396990404371138,-1.4174772173741277
0.8377580409572781,1.420384176620494,4.105220217827061,0.009941467497173125,-1.4147038616531824
0.890117918517108,1.4142839199870842,3.9392904276522183,0.010460346989545278,-1.4080664247575003
0.9424777960769379,1.4043240951958402,3.762573951794052,0.010951952003579266,-1.3975851154778485
0.9948376736367678,1.3905340773298651,3.5755572526404107,0.011414738711030738,-1.3832909408508238
1.0471975511965976,1.3729541117801618,3.378755718582171,0.011847285015247577,-1.3652256891002548
1.0995574287564276,1.3516352569989476,3.1727125512689924,0.012248283670092841,-1.3434418790998517
1.1519173063162573,1.3266392915116985,2.957997736558323,0.012616538241199335,-1.318002671145034
1.2042771838760873,1.2980385734686513,2.735207199080861,0.012950960900581718,-1.2889817282884755
1.2566370614359172,1.2659158346220942,2.5049622976552492,0.013250571400616196,-1.2564630107253443
1.308996938995747,1.2303638840638345,2.2679098902840433,0.013514496794054694,-1.2205404789219714
1.361356816555577,1.1914851937572282,2.0247232210189714,0.013741971607174584,-1.1813176777313255
1.413716694115407,1.1493913438366379,1.7761035921910515,0.013932338264566756,-1.138907179603581
1.4660765716752366,1.1042023277054724,1.5227814181420278,0.014085047624855844,-1.0934298870637331
1.5184364492350666,1.0560457572878275,1.2655117377489633,0.014199659527966625,-1.0450142350317244
1.5707963267948966,1.0050560566518236,1.0050560566518238,0.014275843283281717,-0.9937953815384974
1.6231562043547263,0.9513737616594707,0.7421519559582063,0.014313378048524488,-0.9399145048959247
1.6755160819145563,0.8951450267950282,0.4774955154131586,0.014312153064256167,-0.8835183088111571
1.7278759594743862,0.8365213742311141,0.21175561707196217,0.014272167720357668,-0.8247587706334497
1.780235837034216,0.7756596361890854,-0.054399775997094994,0.014193531440054422,-0.7637930836575982
1.832595714594046,0.7127219851792055,-0.32028978055075036,0.014076463374857216,-0.7007836877598859
1.8849555921538759,0.6478759413699577,-0.5852201327926608,0.013921291910953384,-0.6358982772831142
1.9373154697137056,0.5812942810646083,-0.8484880582179406,0.013728453994712324,-0.5693097099130898
1.9896753472735356,0.5131548167413117,-1.1093876743973168,0.013498494292689414,-0.5011957868988461
2.0420352248333655,0.4436400550969203,-1.3672145555362463,0.01323206421052505,-0.431738911051686
2.0943951023931953,0.3729367578021452,-1.6212694145388262,0.012929920806340978,-0.36112564726921065
2.146754979953025,0.3012354336344542,-1.8708611399746102,0.012592925648869834,-0.28954621428648775
2.199114857512855,0.22872978685587558,-2.115309403071376,0.012222043690409266,-0.21719393252603394
2.251474735072685,0.15561614038699872,-2.3539469803062434,0.011818342252470415,-0.1442646465556893
2.3038346126325147,0.08209284635807255,-2.5861218812126103,0.011382990261855606,-0.07095613463529117
2.356194490192345,0.008359692040947603,-2.811199334417138,0.010917257933440075,0.0025324868163696286
2.4085543677521746,-0.06538269394135904,-3.028563662513517,0.010422517183778478,0.07580521112513752
2.4609142453120043,-0.13893343216123008,-3.237620062943309,0.009900243194357651,0.14883367535558772
2.5132741228718345,-0.2120919778317567,-3.437796304017633,0.009352017754505781,0.2214439955862625
2.5656340004316642,-0.28465869987639275,-3.6285443403875113,0.008779535352915757,0.2934382352293085
2.617993877991494,-0.35643545261712106,-3.8093418493603566,0.008184613544505961,0.364620066161627
2.670353755551324,-0.42722613916799645,-3.9796936877068894,0.007569210062216605,0.43479534923021307
2.722713633111154,-0.4968372656230582,-4.139133267559251,0.00693545078415363,0.5037727164072118
2.7750735106709836,-0.5650784850891045,-4.287223849401481,0.006285675612250232,0.5713641607013548
2.827433388230814,-0.6317631305625283,-4.423559749836418,0.005622514784572014,0.6373856453471003
2.8797932657906435,-0.6967087355999289,-4.547767461680204,0.00494901863438757,0.7016577542343164
2.9321531433504733,-0.7597375416914219,-4.659506683924641,0.004268884598761201,0.7640064262901831
2.9845130209103035,-0.8206769912160813,-4.758471259179594,0.003586867457246308,0.8242638586733276
3.036872898470133,-0.8793602048412318,-4.844390016336801,0.002909544142347481,0.8822697489835792
3.089232776029963,-0.9356264422204851,-4.917027516365691,0.0022467633400316683,0.9378732055605168
3.141592653589793,-0.9893215448482837,-4.976184699349599,0.001614297148053313,0.990935841996337
3.193952531149623,-1.040298359939789,-5.021699431088721,0.0010377443013615227,1.0413361042411506
3.2463124087094526,-1.0884171442226807,-5.053446947828172,0.000553517704815761,1.0889706619274964
3.2986722862692828,-1.1335459465503588,-5.071340197910742,0.00019330328314649586,1.1337392498335053
3.3510321638291125,-1.1755609682726413,-5.075330079400062,3.887019430971428e-19,1.1755609682726413
3.4033920413889422,-1.2143469003288858,-5.065405572967137,4.669920399473306e-19,1.2143469003288858
3.4557519189487724,-1.2497972360579626,-5.041593769577072,8.786679061609208e-19,1.2497972360579626
3.508111796508602,-1.2818145587481966,-5.003959792748761,7.532094758085218e-19,1.2818145587481966
3.560471674068432,-1.3103108029765966,-4.952606615381768,7.3703533944480975e-19,1.3103108029765966
3.612831551628262,-1.3352074888088483,-4.887674771343734,7.948079643497365e-19,1.3352074888088483
3.665191429188092,-1.3564359279481935,-4.809341962176284,1.4374147324507103e-18,1.3564359279481935
3.7175513067479216,-1.3739374009314305,-4.717822559390969,9.530525861757196e-19,1.3739374009314305
3.7699111843077517,-1.387663304473851,-4.613367002863372,1.1414692327628652e-18,1.387663304473851
3.8222710618675815,-1.3975752680641125,-4.496261095754173,1.3270332248254712e-18,1.3975752680641125
3.874630939427411,-1.4036452389110052,-4.3668251961290165,1.3390556597750101e-18,1.4036452389110052
3.9269908169872414,-1.4058555343603356,-4.225413304916247,1.4113263420434902e-18,1.4058555343603356
3.979350694547071,-1.404198860958189,-4.072412048872855,1.6099850507953942e-18,1.404198860958189
4.031710572106901,-1.3986782994849045,-3.90823955555948,1.3057191297890783e-18,1.3986782994849045
4.084070449666731,-1.3893072556056987,-3.733344214509997,1.38208418582551e-18,1.3893072556056987
4.13643032722656,-1.3761093764165289,-3.548203314063744,1.3350700146534506e-18,1.3761093764165289
4.1887902047863905,-1.3591184343208425,-3.3533215354158368,1.7257274542062694e-18,1.3591184343208425
4.241150082346221,-1.3383781816591203,-3.1492292721391393,2.976075386743931e-18,1.3383781816591203
4.29350995990605,-1.3139421827069144,-2.936480721138135,2.150275073585047e-18,1.3139421827069144
4.34586983746588,-1.285873634400627,-2.7156516543676377,1.9871560004823033e-18,1.285873634400627
4.39822971502571,-1.2542451934451977,-2.4873367241410573,2.8189359652125513e-18,1.2542451934451977
4.45058959258554,-1.2191388343466407,-2.2521460830677937,1.699567294965919e-18,1.2191388343466407
4.50294947014537,-1.1806457675527888,-2.010701070606697,2.473945046236515e-18,1.1806457675527888
4.5553093477052,-1.1388664438138014,-1.7636289842978188,2.3926286018410483e-18,1.1388664438138014
4.607669225265029,-1.0939106528931206,-1.5115582647485677,2.232336140773684e-18,1.0939106528931206
4.6600291028248595,-1.0458976875240709,-1.2551189133835747,1.6470993260712228e-18,1.0458976875240709
4.71238898038469,-0.9949564938621299,-0.9949564938621307,1.9700649968434414e-18,0.9949564938621299
4.764748857944519,-0.9412256913051602,-0.7317591297866929,4.13752417731997e-05,0.9412670665469334
4.817108735504349,-0.8848533489121347,-0.46627235320194066,8.471896324364028e-05,0.8849380678753784
4.869468613064179,-0.8259964658909461,-0.1992809925082903,0.00012972150666968574,0.8261261873976158
4.921828490624009,-0.764820194114376,0.06842194734235992,0.00017611855986509692,0.7649963126742411
4.974188368183839,-0.7014969110967134,0.3360536092591923,0.00022367137740687544,0.7017205824741203
5.026548245743669,-0.6362052679239568,0.6028457261872116,0.0002721570538378141,0.6364774249777946
5.078908123303498,-0.56912930356261,0.8680436203193186,0.0003213639006683404,0.5694506674632784
5.1312680008633285,-0.5004576656372443,1.1309047045601126,0.0003710894220108981,0.5008287550592552
5.183627878423159,-0.43038293593411203,1.3906978469417568,0.000421139601462475,0.4308040755355745
5.235987755982988,-0.35910103704239965,1.6467036078121438,0.00047132884646195795,0.3595723658888616
5.288347633542818,-0.28681069153628846,1.8982150868076724,0.0005214802744383695,0.28733217181072684
5.340707511102648,-0.21371290930779363,2.1445391470574235,0.0005714262075127738,0.2142843355153064
5.393067388662478,-0.14001048582889986,2.3849978578067907,0.0006210088428742955,0.14063149467177416
5.445427266222308,-0.06590750085866595,2.618930054502828,0.000670081125645015,0.06657758198431096
5.497787143782138,0.008391187787118969,2.8456929528767985,0.0007185078951713336,-0.007697853455308992
5.550147021341967,0.08268045737597983,3.0646637764612947,0.0007661674216746457,-0.08216233132643312
5.602506898901797,0.15675544020023693,3.275241370771343,0.000812953513933862,-0.15641275300690377
5.654866776461628,0.23041204904462823,3.476847785734881,0.0008587784803987516,-0.23024450671136334
5.707226654021457,0.3034475063140157,3.6689298131069448,0.0009035773988226312,-0.3034542714341351
5.759586531581287,0.37566087470491605,3.8509604688523997,0.0009473144540167984,-0.375840542875014
5.811946409141117,0.4468535872441464,4.022440412598081,0.0009899926596890361,-0.44720415534618985
5.864306286700947,0.5168299745561825,4.182899297684432,0.0010316693369882373,-0.5173487951428628
5.916666164260777,0.58539778730561,4.331897046354695,0.0010724818177714505,-0.5860814988497554
5.969026041820607,0.6523687118640387,4.469025045366268,0.0011126921975283637,-0.6532131258021023
6.021385919380436,0.717558877357598,4.593907257891559,0.0011527694908956988,-0.7185587844987751
6.073745796940266,0.7807893523549386,4.7062012480546835,0.0011935494532439987,-0.7819381709587594
6.126105674500097,0.8418866295543384,4.805599114863772,0.0012365648540142203,-0.8431757245889872
6.178465552059926,0.9006830969218614,4.8918283326707455,0.0012847661499011717,-0.9021003800627259
6.230825429619756,0.9570174938213868,4.964652495636444,0.001344134348393175,-0.9585444119544577
