theta,z_plus,z_plus_cvec,lambda_top,edge_margin
0.0,1.0122894429903726,5.027306151747087,0.00911158251754246,-1.0062147288018013
0.05235987755982988,1.063241859561821,5.072754128518676,0.010293913026160749,-1.0561376721143456
0.10471975511965977,1.1112875570999428,5.104301586450612,0.01152716051035416,-1.1030942592608883
0.15707963267948966,1.1562949181305215,5.121862095369619,0.012792657291524422,-1.1469711455933886
0.20943951023931953,1.1981407020548425,5.125387589548499,0.014074221568508752,-1.1876609025924982
0.2617993877991494,1.236710385580768,5.1148685014051125,0.015358202662230754,-1.2250623140752794
0.3141592653589793,1.2718984804396885,5.0903337906157144,0.016633167567214356,-1.259081008313793
0.36651914291880916,1.3036088276609623,5.051850868737048,0.01788949625171065,-1.2896301578922345
0.41887902047863906,1.3317548677907682,4.999525419795243,0.01911900661040905,-1.3166311257837315
0.47123889803846897,1.3562598865672961,4.9335011176882615,0.02031464789537992,-1.340014018331618
0.5235987755982988,1.3770572357002686,4.853959241673578,0.02147026477136532,-1.359718142636004
0.5759586531581287,1.3940905285506335,4.761118191692482,0.0225804212894593,-1.375692378846826
0.6283185307179586,1.4073138106653578,4.655232905844228,0.023640271682184397,-1.3878954804151695
0.6806784082777885,1.4166917052893002,4.536594183011217,0.024645466314738754,-1.3962963140904292
0.7330382858376183,1.4221995341427327,4.40552791451975,0.025592083515408814,-1.400874049229752
0.7853981633974483,1.4238234139013375,4.262394229912104,0.026476580279711434,-1.40161830386333
0.8377580409572781,1.4215603289111054,4.107586563588405,0.027295756688741415,-1.3985292532090972
0.890117918517108,1.4154181806512314,3.9415306515566755,0.028046730284175612,-1.3916177049090095
0.9424777960769379,1.40541581421683,3.7646834713216286,0.028726917673159116,-1.3809051439863216
0.9948376736367678,1.391583021454732,3.57753214392384,0.02933402138267375,-1.3664237491364224
1.0471975511965976,1.3739605190807629,3.3805928268113723,0.029866020520387705,-1.3482163801176175
1.0995574287564276,1.3525998977588876,3.1744096421314083,0.030321164186020287,-1.3263365332661439
1.1519173063162573,1.327563534284028,2.9595537113389354,0.030697966857197383,-1.3008482580296827
1.2042771838760873,1.2989244533313893,2.7366224098668557,0.0309952051777811,-1.2718260215136024
1.2566370614359172,1.26676611789387,2.506239021120422,0.03121191572691405,-1.2393545005206377
1.308996938995747,1.2311821200461028,2.2690530507109052,0.031347393459282974,-1.2035282729469583
1.361356816555577,1.1922757399941748,2.0257414882617732,0.03140119059262471,-1.1644513766215325
1.413716694115407,1.1501593483787522,1.7770109720703233,0.03137311578537573,-1.1222367106385127
1.4660765716752366,1.1049536523282542,1.5235992442003918,0.03126323350159359,-1.0770052797836454
1.5184364492350666,1.056786832068076,1.2662702589527486,0.03107186350640795,-1.0288853290578723
1.5707963267948966,1.0057936694031142,1.0057936694031144,0.030799580476962324,-0.9780114699343612
1.6231562043547263,0.9521148022675648,0.7429104015287399,0.030447213754275212,-0.9245239329200924
1.6755160819145563,0.8958962196917898,0.47831293699489963,0.030015847303735736,-0.8685680610471294
1.7278759594743862,0.8372890355599751,0.21266195755977715,0.029506819999305718,-0.8102940826673494
1.780235837034216,0.7764494840569579,-0.05338339940766852,0.028921726402731752,-0.7498571061063971
1.832595714594046,0.7135390162379672,-0.3191494737311758,0.0282624182789541,-0.687417215007727
1.8849555921538759,0.6487243718485043,-0.5839472669785282,0.027531007178751628,-0.6231395377852981
1.9373154697137056,0.582177540312582,-0.8470777112058794,0.026729868538085726,-0.557194204395434
1.9896753472735356,0.5140755775444061,-1.107837551747027,0.025861647902550966,-0.48975615637448844
2.0420352248333655,0.4446002859120671,-1.3655242775564167,0.024929270101554366,-0.4210048166682489
2.0943951023931953,0.373937785277558,-1.6194400473852,0.023935952493884596,-0.3511236461395061
2.146754979953025,0.30227800746948646,-1.8688948827282776,0.022885223817169918,-0.28029961767472505
2.199114857512855,0.2298141422218679,-2.113209373659135,0.021780950743867336,-0.20872263390466617
2.251474735072685,0.15674205544965472,-2.3517170644841996,0.0206273750368198,-0.13658490657918387
2.3038346126325147,0.08325969395991292,-2.5837666223136257,0.019429165284736268,-0.06408030775705639
2.356194490192345,0.009566485501725858,-2.808723849844587,0.01819148866594942,0.008596303707718383
2.4085543677521746,-0.06413726047305006,-3.025973578042559,0.01692011009473439,0.08105737056778445
2.4609142453120043,-0.13765094816304546,-3.2349214590348976,0.015621528382947253,0.15327247654599271
2.5132741228718345,-0.21077428497331652,-3.4349956703254465,0.014303161270186906,0.22507744624350343
2.5656340004316642,-0.28330786402816394,-3.625648535899717,0.012973591980111547,0.2962814560082755
2.617993877991494,-0.35505373870208246,-3.806358066438435,0.01164288587263261,0.3666966245747151
2.670353755551324,-0.42581598833602147,-3.9766294188263753,0.01032296899443429,0.43613895733045577
2.722713633111154,-0.4954012743079641,-4.135996273922345,0.009028015852383046,0.5044292901603471
2.7750735106709836,-0.5636193855814948,-4.2840221308408655,0.007774699218060526,0.5713940847995553
2.827433388230814,-0.6302837727952569,-4.420301515602532,0.006581996916289867,0.6368657697115468
2.8797932657906435,-0.6952120698967467,-4.544461101825592,0.005470084593627799,0.7006821544903744
2.9321531433504733,-0.7582266022736335,-4.656160741085102,0.004457892736616698,0.7626844950102502
2.9845130209103035,-0.8191548802978094,-4.7550944006132925,0.003559517818117165,0.8227143981159265
3.036872898470133,-0.8778300771721601,-4.840991006126529,0.0027807714388156986,0.8806108486109758
3.089232776029963,-0.9340914899567553,-4.913615187720685,0.0021175574180917252,0.936209047374847
3.141592653589793,-0.9877849826483361,-4.972767926964979,0.001556360989144438,0.9893413436374806
3.193952531149623,-1.0387634101930283,-5.018287103534876,0.001076031370063774,1.039839441563092
3.2463124087094526,-1.0868870223253928,-5.0500479399505,0.0006528808325228412,1.0875399031579156
3.2986722862692828,-1.1320238461455385,-5.067963343222805,0.00026998115545518906,1.1322938273009937
3.3510321638291125,-1.1740500463684453,-5.071984142450795,2.5340963056442385e-18,1.1740500463684453
3.4033920413889422,-1.2128502622041764,-5.06209922165487,2.545705998094885e-18,1.2128502622041764
3.4557519189487724,-1.2483179198526029,-5.038335547369171,2.9696391649232346e-18,1.2483179198526029
3.508111796508602,-1.2803555196198906,-5.0007580907443705,2.9111508944694545e-18,1.2803555196198906
3.560471674068432,-1.3088748966845132,-4.949469644124349,4.476236841352724e-18,1.3088748966845132
3.612831551628262,-1.3337974545561109,-4.884610532246705,2.3711800952901575e-18,1.3337974545561109
3.665191429188092,-1.3550543702795488,-4.806358218364428,2.4993715010499122e-18,1.3550543702795488
3.7175513067479216,-1.372586770437852,-4.714926805675328,2.9715845230676105e-18,1.372586770437852
3.7699111843077517,-1.3863458770013253,-4.610566434447678,4.8317629208513924e-18,1.3863458770013253
3.8222710618675815,-1.3962931220586015,-4.493562575100284,3.463793690048118e-18,1.3962931220586015
3.874630939427411,-1.4024002304555443,-4.364235217162944,3.1434072734234986e-18,1.4024002304555443
3.9269908169872414,-1.404649269375301,-4.2229379533965075,4.534089847695358e-18,1.404649269375301
3.979350694547071,-1.4030326639473658,-4.070056957207883,3.92793788629277e-18,1.4030326639473658
4.031710572106901,-1.3975531781300643,-3.906009849552249,5.862583782696089e-18,1.3975531781300643
4.084070449666731,-1.3882238604641701,-3.7312444482638014,5.5195259720288445e-18,1.3882238604641701
4.13643032722656,-1.3750679550015061,-3.5462373873345197,5.011266784635201e-18,1.3750679550015061
4.1887902047863905,-1.3581187790137743,-3.3514925845908934,4.737567027767174e-18,1.3581187790137743
4.241150082346221,-1.3374195713301127,-3.1475395209960357,4.373753895594847e-18,1.3374195713301127
4.29350995990605,-1.3130233187686577,-2.9349312693146836,4.403848850921552e-18,1.3130233187686577
4.34586983746588,-1.2849925735114054,-2.714242168016045,5.466019359006503e-18,1.2849925735114054
4.39822971502571,-1.2533992814360702,-2.486064971699387,4.2680595006912026e-18,1.2533992814360702
4.45058959258554,-1.2183246492955764,-2.251007227188872,6.1283413525084705e-18,1.2183246492955764
4.50294947014537,-1.179859084021008,-2.009686590736859,5.736542103863152e-18,1.179859084021008
4.5553093477052,-1.138102234115043,-1.7627251040502652,5.244988832781496e-18,1.138102234115043
4.607669225265029,-1.0931631428551487,-1.5107439408977785,5.8520453471607275e-18,1.0931631428551487
4.6600291028248595,-1.0451604807051273,-1.2543641229865747,6.4301142320983415e-18,1.0451604807051273
4.71238898038469,-0.9942227674499283,-0.9942227674499291,4.1505512044545344e-18,0.9942227674499283
4.764748857944519,-0.9404884499722261,-0.731004262816808,5.348932081378044e-05,0.9405419392930399
4.817108735504349,-0.8841057055349417,-0.4654576204394301,0.00011120159899247978,0.8842169071339342
4.869468613064179,-0.8252319087343688,-0.19837606454087317,0.00017311518118624502,0.825405023915555
4.921828490624009,-0.7640328042067135,0.06943832830221953,0.0002393642935582554,0.7642721685002718
4.974188368183839,-0.7006815088962719,0.3371953294550194,0.0003102197799139582,0.7009917286761859
5.026548245743669,-0.6353574869765478,0.604121346187576,0.0003860658201726613,0.6357435527967205
5.078908123303498,-0.5682456028599976,0.8694579791148576,0.00046737548711992986,0.5687129783471175
5.1312680008633285,-0.49953529861875684,1.1324600158705027,0.0005546920886762017,0.5000899907074331
5.183627878423159,-0.42941989379769335,1.3923944170992177,0.0006486222848141274,0.43006851608250746
5.235987755982988,-0.35809598030972806,1.6485403047673721,0.0007498434741975802,0.35884582378392565
5.288347633542818,-0.2857628792823682,1.9001896517092325,0.0008591251952741007,0.2866220044776423
5.340707511102648,-0.21262213156412185,2.146648406781472,0.0009773637375348327,0.21359949530165667
5.393067388662478,-0.13887700186199964,2.387237874615168,0.001105630349105394,0.13998263221110505
5.445427266222308,-0.06473198424238835,2.621296235215311,0.0012452354007020732,0.06597721964309043
5.497787143782138,0.009607697401265575,2.8481801315564943,0.0013978130809240022,-0.00823870741254537
5.550147021341967,0.08393659639124973,3.067266279506098,0.0015654335486357473,-0.08262297263178772
5.602506898901797,0.15804955790850142,3.277953070159987,0.0017507519457405645,-0.15677295463648636
5.654866776461628,0.23174223998818716,3.479662144208546,0.0019572059420551076,-0.2304802607660966
5.707226654021457,0.30481163894485686,3.6718399238140917,0.0021892742519353465,-0.3035367996097561
5.759586531581287,0.37705661701854715,3.853959091171465,0.0024528043855469887,-0.3757349824840558
5.811946409141117,0.448278429964328,4.025520005315723,0.0027554009982880216,-0.44686786425593295
5.864306286700947,0.5182812523511319,4.186052050346355,0.003106821551461826,-0.5167292745567235
5.916666164260777,0.5868726984313745,4.335114909359842,0.0035192312984137475,-0.5851140852282549
5.969026041820607,0.6538643365585214,4.472299759204687,0.004007011726826056,-0.6518189178413709
6.021385919380436,0.7190721952488974,4.597230381806611,0.004585651434434768,-0.7166437604002094
6.073745796940266,0.7823172590990937,4.7095641883254435,0.005269301881970497,-0.7793949089944204
6.126105674500097,0.8434259528788208,4.808993152843018,0.006067208911552557,-0.8398890218259047
6.178465552059926,0.9022306122208318,4.895244652670602,0.006980385132864472,-0.8979569189246298
6.230825429619756,0.9585699394255965,4.9680822127231,0.008000471780969295,-0.953445177462904
