theta,z_plus,lambda_top,edge_margin
0.0,0.001778569322068413,0.0005414060164097721,-0.0012727346921000092
0.03490658503988659,0.001791820876679265,0.0009985916036590074,-0.0008290656905538428
0.06981317007977318,0.0018042615050392885,0.0017592153741271713,-8.113136101290308e-05
0.10471975511965978,0.0018158758694992192,0.0026618746084504704,0.0008096812215612668
0.13962634015954636,0.0018266494569274606,0.003613041784937444,0.0017498593388714343
0.17453292519943295,0.0018365685936343025,0.004581285090295378,0.0027079851247883893
0.20943951023931956,0.0018456204579461821,0.0055545270745048884,0.0036719942073997827
0.24434609527920614,0.0018537930903454911,0.006526924073091224,0.004636055120938823
0.2792526803190927,0.0018610754010692254,0.007495006178230329,0.005596709269139719
0.3141592653589793,0.0018674571750346405,0.008456350387496633,0.0065515440689613
0.3490658503988659,0.001872929073931118,0.009409053183457673,0.007498665528047933
0.3839724354387525,0.0018774826352833526,0.010351495261157312,0.008436462973168291
0.4188790204786391,0.0018811102682504066,0.011282226730995389,0.009363494257379973
0.4537856055185257,0.0018838052458761611,0.012199907068774964,0.01027842571798128
0.4886921905584123,0.0018855616934469448,0.013103271978833212,0.011179999051517328
0.5235987755982988,0.001886374572538559,0.013991114368435222,0.012067012304445892
0.5585053606381855,0.0018862396602435448,0.01486227312786148,0.012938308674413064
0.5934119456780721,0.0018851535229551459,0.01571562642611167,0.013792769832697421
0.6283185307179586,0.001883113483940023,0.016550087719120758,0.014629311965501934
0.6632251157578453,0.0018801175837480054,0.01736460343952237,0.015446883504099404
0.6981317007977318,0.0018761645322713531,0.01815815175626334,0.01624446393334656
0.7330382858376184,0.0018712536509607153,0.018929742029088176,0.017021063305108247
0.767944870877505,0.0018653848033061274,0.019678414721228776,0.017775722221856527
0.8028514559173916,0.0018585583111651392,0.02040324161695737,0.018507512139568926
0.8377580409572782,0.0018507748538184854,0.02110332624224225,0.019215535891347394
0.8726646259971648,0.0018420353456874712,0.021777804419471226,0.019898928366870006
0.9075712110370514,0.0018323407873554272,0.022425844908440018,0.020556857305337482
0.9424777960769379,0.0018216920827483767,0.023046650099859102,0.021188524175455758
0.9773843811168246,0.0018100898128211506,0.02363945673711772,0.021793165128040148
1.0122909661567112,0.0017975339525166834,0.02420353664855425,0.022370052016987232
1.0471975511965976,0.0017840235125716197,0.024738197477027567,0.022918493494204516
1.0821041362364843,0.0017695560800530233,0.025242783396804212,0.02343783619515013
1.117010721276371,0.0017541272198831144,0.02571667581009624,0.023927466045815464
1.1519173063162575,0.0017377296815924098,0.026159294017275396,0.024386809742051138
1.1868238913561442,0.0017203523268545485,0.026570095856045937,0.0248153364826543
1.2217304763960306,0.0017019786462411806,0.02694857830580044,0.025212560086634438
1.2566370614359172,0.0016825846534560991,0.02729427805410354,0.025578041707578318
1.2915436464758039,0.0016621358031237226,0.027606772022807445,0.025911393503621247
1.3264502315156905,0.0016405823135802063,0.02788567785174307,0.026212283891891258
1.361356816555577,0.0016178517544010677,0.028130654338284156,0.026480445548795067
1.3962634015954636,0.0015938366553434474,0.028341401831369947,0.02671568844291963
1.4311699866353502,0.0015683723495662706,0.02851766257881229,0.026917922782254692
1.4660765716752369,0.0015411937076492302,0.02865922102691753,0.027087203445115313
1.5009831567151235,0.0015118398226815202,0.028765904071629628,0.02722382745249448
1.53588974175501,0.0014794035596109292,0.028837581260557504,0.027328589629754357
1.5707963267948966,0.0014416599650873606,0.028874164945391856,0.02740367178100275
1.6057029118347832,0.001390707845951907,0.0288756103843454,0.027457088381474454
1.6406094968746698,0.0013165310546148572,0.028841915794374402,0.027499054118667248
1.6755160819145565,0.0012427623371050445,0.028773122353055687,0.02750550476920854
1.710422666954443,0.0011796590144919424,0.02866931415010987,0.027466061955328087
1.7453292519943295,0.001126238667983246,0.02853061808867438,0.02738185464733147
1.7802358370342162,0.0010803078905254784,0.02835720373654769,0.0272552896882117
1.8151424220741028,0.0010400377403365338,0.028149283127746408,0.027088444632603143
1.8500490071139892,0.0010040661650592335,0.027907110514844406,0.026882963026483988
1.8849555921538759,0.0009713952247768085,0.02763098207270097,0.026640158943428624
1.9198621771937625,0.0009412882533130535,0.0273212355543361,0.026361121535956787
1.9547687622336491,0.0009131937677736149,0.02697824989988102,0.02604679225675193
1.9896753472735358,0.0008866925943473149,0.02660244479972728,0.02569801835349302
2.0245819323134224,0.0008614614704332607,0.026194280213225653,0.025315589513383727
2.059488517353309,0.0008372477923657675,0.025754255844558573,0.02490026309634549
2.0943951023931953,0.0008138518506076208,0.025282910577741936,0.024452781690122164
2.129301687433082,0.0007911141329640227,0.024780821873122805,0.0239738854574995
2.1642082724729685,0.0007689061030930728,0.02424860512826009,0.023464320903105157
2.199114857512855,0.0007471233978270305,0.023686913006739994,0.022924847140956422
2.234021442552742,0.0007256807336336528,0.023096434739348505,0.02235624039104218
2.2689280275926285,0.000704508038535225,0.02247789540317258,0.02175929720386665
2.303834612632515,0.0006835474748121181,0.021832055185748114,0.021134836761439756
2.3387411976724017,0.0006627511173976125,0.021159708643479658,0.020483702503734092
2.3736477827122884,0.0006420791203259132,0.020461683966473618,0.019806763263741187
2.4085543677521746,0.0006214982498713995,0.019738842266020774,0.019104914051151948
2.443460952792061,0.0006009806951050096,0.01899207690680456,0.018379076597797448
2.478367537831948,0.0005805030889993768,0.018222312914374733,0.01763019976359537
2.5132741228718345,0.0005600456888566951,0.017430506500905392,0.016859259898271563
2.548180707911721,0.000539591675589057,0.016617644770993978,0.01606726126189314
2.5830872929516078,0.000519126538408871,0.01578474569796387,0.015255236628786821
2.6179938779914944,0.0004986375154022759,0.014932858506064597,0.014424248240354275
2.652900463031381,0.0004781130613898839,0.014063064666001712,0.013575389343384031
2.6878070480712677,0.00045754231200165505,0.013176479829804303,0.012709786671562615
2.722713633111154,0.0004369145057810133,0.012274257232064219,0.011828604436167586
2.7576202181510405,0.00041621831178672447,0.011357593436856283,0.010933050758833824
2.792526803190927,0.0003954409833386999,0.010427737950577595,0.010024388147572122
2.827433388230814,0.00037456720853675885,0.009486009438115922,0.009103950885408428
2.8623399732707004,0.0003535774320692496,0.008533823708424797,0.008173174727714163
2.897246558310587,0.00033244522856690494,0.0075727437690509955,0.007233649635912752
2.9321531433504737,0.00031113288726193806,0.006604573862590578,0.006287218317583401
2.9670597283903604,0.0002895833725685349,0.0056315478898066144,0.005336172849786709
3.001966313430247,0.00026770417610869816,0.00465673970595025,0.004383681446319378
3.036872898470133,0.0002453302838537741,0.0036850575267337697,0.00343482063720292
3.07177948351002,0.0002221204339092657,0.0027260064630421944,0.0024994436204547436
3.1066860685499065,0.0001971395073300502,0.001802689402947403,0.0016016071054707518
3.141592653589793,0.0003194305910325262,0.0009833236184399554,0.0006575044155867787
3.1764992386296798,0.0001568409200503312,0.00042648246778514466,0.00026650472933380687
3.2114058236695664,0.00013868341811492554,0.00017697946501504526,3.552237853782122e-05
3.246312408709453,0.00012203431115760033,7.511514933663243e-05,-4.93598480441199e-05
3.2812189937493397,0.00010674081673479285,2.9694133098429024e-05,-7.918149997105968e-05
3.3161255787892263,9.26707885895625e-05,7.300750618387302e-06,-8.722345374296645e-05
3.351032163829113,7.970948569379792e-05,-4.780615923554401e-09,-8.130845602359743e-05
3.385938748868999,6.775694214639995e-05,-1.3056873263753943e-08,-6.91251378625917e-05
3.420845333908886,5.6725814087359824e-05,-1.995723931261044e-08,-5.788028760841963e-05
3.4557519189487724,4.653960858715903e-05,-2.6262751315841832e-08,-4.7496663510218056e-05
3.490658503988659,3.713122106404612e-05,-3.2185147115083757e-08,-3.7906030632442125e-05
3.5255650890285457,2.8441724148066013e-05,-3.782187433168923e-08,-2.9048380505359023e-05
3.5604716740684323,2.0419363456982995e-05,-4.322633867842491e-08,-2.0870977064801078e-05
3.595378259108319,1.3018725488808687e-05,-4.843046668454098e-08,-1.33275304652694e-05
3.6302848441482056,6.2000505097548555e-06,-5.345425015366657e-08,-6.377505770103619e-06
3.6651914291880923,-7.133052228269707e-08,-5.831046297665911e-08,1.3020059306037956e-08
3.7000980142279785,-5.82545088721551e-06,-6.300724481583895e-08,5.7624436423996714e-06
3.735004599267865,-1.1088066456117464e-05,-6.754962579297473e-08,1.102051683032449e-05
3.7699111843077517,-1.588092519301634e-05,-7.194047910051569e-08,1.5808984713915824e-05
3.8048177693476384,-2.0221951898079344e-05,-7.618114388382322e-08,2.014577075419552e-05
3.839724354387525,-2.4125348611003563e-05,-8.027184798401609e-08,2.4045076763019546e-05
3.8746309394274117,-2.760160708984569e-05,-8.421200391204894e-08,2.751739508593364e-05
3.9095375244672983,-3.0669732607804974e-05,-8.800042158457459e-08,3.0581732186220397e-05
3.944444109507185,-3.336572279411743e-05,-9.163546468088631e-08,3.327408732943654e-05
3.9793506945470716,-3.566034115065282e-05,-9.511516774807352e-08,3.556522598290475e-05
4.014257279586958,-3.7521081216741844e-05,-9.843732529002176e-08,3.742264389145182e-05
4.049163864626845,-3.891742642226737e-05,-1.0159956038783222e-07,3.881582686187954e-05
4.084070449666731,-3.982001360705817e-05,-1.0459937802596532e-07,3.971541422903221e-05
4.118977034706618,-4.020002398346247e-05,-1.0743420672896872e-07,4.00925897767335e-05
4.153883619746504,-4.002875187380084e-05,-1.1010143104708319e-07,3.9918650442753755e-05
4.1887902047863905,-3.9277359862204865e-05,-1.1259841668982183e-07,3.9164761445515046e-05
4.223696789826278,-3.791689985629836e-05,-1.1492252957642626e-07,3.780197732672194e-05
4.258603374866164,-3.5894202935081234e-05,-1.1707114968463904e-07,3.5777131785396594e-05
4.293509959906051,-3.304557522655335e-05,-1.1904168027630184e-07,3.292653354627705e-05
4.328416544945937,-2.920808330674676e-05,-1.2083155284088478e-07,2.9087251753905877e-05
4.363323129985824,-2.4165831568667312e-05,-1.2243822788971259e-07,2.40433933407776e-05
4.39822971502571,-1.7614308667626148e-05,-1.2385919154048765e-07,1.749044947608566e-05
4.4331363000655974,-9.111842371778395e-06,-1.2509194764257586e-07,8.986750424135819e-06
4.468042885105484,2.00511033239404e-06,-1.2613400497607505e-07,-2.1713465440179958e-06
4.50294947014537,1.677868728540888e-05,-1.2698285881916269e-07,-1.7241243889936218e-05
4.537856055185257,3.694153021344415e-05,-1.2763596586337838e-07,-3.7807996783576414e-05
4.572762640225143,6.559852886461874e-05,-1.2809071106428738e-07,-6.703859015297542e-05
4.60766922526503,0.00010891593935363152,-1.2834436448386132e-07,-0.00011122260250518802
4.642575810304916,0.00018112183356986959,-1.2839402545070752e-07,-0.00018487266426671768
4.6774823953448035,0.00032406643698152597,-1.2823655033335262e-07,-0.00033067600227148987
4.71238898038469,0.0006401600839866455,-1.278684587440843e-07,-0.0006530911541251226
4.747295565424577,0.0006875615137673448,-1.2728581080783802e-07,-0.0007014400298534995
4.782202150464463,0.0007243840430303156,-1.264840448406041e-07,-0.0007389982079357625
4.817108735504349,0.0007577100081119343,-1.2545775967592087e-07,-0.0007729896660338488
4.852015320544236,0.0007892472860493093,-1.2420041773099776e-07,-0.0008051564321880265
4.886921905584122,0.0008197198428692417,-1.2270393141253652e-07,-0.0008362369436580392
4.9218284906240095,0.0008495049604511388,-1.2095807220260503e-07,-0.0008666160177323641
4.956735075663896,0.0008788215459786688,-1.189495996354344e-07,-0.0008965169264978776
4.991641660703783,0.0009078043974403165,-1.1666092641063145e-07,-0.0009260771463155333
5.026548245743669,0.0009365389302589031,-1.1406796849722985e-07,-0.0009553837768325784
5.061454830783556,0.0009650793954258009,-1.1113645026703651e-07,-0.000984492119784584
5.096361415823442,0.0009934592735219908,-1.0781497302173015e-07,-0.0010134362739654523
5.1312680008633285,0.0010216975993150503,-1.0402032182729769e-07,-0.0010422355716231786
5.1661745859032155,0.0010498030129216008,-9.96002804758668e-08,-0.0010708986734605087
5.201081170943102,0.0010777764665258858,-9.421013804567342e-08,-0.001099426205994449
5.235987755982989,0.0011056130982199314,-8.665979389003263e-08,-0.00112781201997822
5.270894341022875,0.0011333035695051373,-6.550837472776919e-08,-0.0011560351492699678
5.305800926062762,0.0011608350458894114,1.9948586795935837e-07,-0.0011838522609392403
5.340707511102648,0.0011881919331850632,1.2712763637020693e-06,-0.0012106844954850623
5.375614096142535,0.0012153564424250592,3.124055708548922e-06,-0.0012365395155650115
5.410520681182422,0.0012423090319207525,5.6134986750937344e-06,-0.001261541713884074
5.445427266222308,0.0012690287595327246,8.674074572985288e-06,-0.0012857352601503937
5.480333851262195,0.0012954935681768597,1.2262617565066435e-05,-0.0013091408219753306
5.515240436302081,0.0013216805208963191,1.6347914640911333e-05,-0.0013317662166733343
5.550147021341968,0.0013475659972799036,2.091044037849426e-05,-0.0013536068768470076
5.585053606381854,0.0013731258598541078,2.594125608277472e-05,-0.001374647120968415
5.619960191421741,0.001398335596853381,3.143993444171895e-05,-0.0013948623743487297
5.654866776461628,0.0014231704461815427,3.7412461395389445e-05,-0.0014142213937097842
5.689773361501515,0.0014476055042214634,4.3869614053166336e-05,-0.0014326880002527263
5.724679946541401,0.0014716158222995662,5.082598621394362e-05,-0.001450222152531614
5.759586531581287,0.0014951764929783565,5.829971911095646e-05,-0.0014667803037269672
5.794493116621174,0.001518262727873152,6.631298312055454e-05,-0.0014823149993100605
5.82939970166106,0.0015408499283262652,7.489328779108437e-05,-0.0014967736391017063
5.8643062867009474,0.0015629137499929833,8.407576718348678e-05,-0.0015100962578093562
5.899212871740834,0.0015844301621774528,9.390672199370627e-05,-0.0015222120434272956
5.934119456780721,0.0016053755025874409,0.00010444895614352484,-0.0015330340564956649
5.969026041820607,0.0016257265280434985,0.0001157899366199347,-0.0015424511219844339
6.003932626860494,0.0016454604615719999,0.0001280547824152583,-0.0015503148883881815
6.03883921190038,0.0016645550362264095,0.00014142818009410928,-0.0015564179568568286
6.073745796940266,0.001682988535912408,0.0001561943858775106,-0.0015604539207531457
6.1086523819801535,0.0017007398334363633,0.00017281977349584807,-0.0015619348566092424
6.14355896702004,0.0017177884259504668,0.0001921727575735357,-0.0015599714368959403
6.178465552059927,0.0017341144679293577,0.00021660757648762295,-0.0015521891808003218
6.213372137099813,0.0017496988017806309,0.0002584670789630453,-0.0015262256988531982
6.2482787221397,0.0017645229861638417,0.0003461446056913647,-0.0014536688401957539
