theta,z_plus,lambda_top,edge_margin
0.0,0.00178705865910876,0.0005126171195673627,-0.0013101827127235724
0.03490658503988659,0.0018002320005601048,0.0009379224606787437,-0.0008983141798925632
0.06981317007977318,0.001812595676575335,0.0016743693965931856,-0.0001744781935136561
0.10471975511965978,0.0018241344382824243,0.002562771730840064,0.0007021546037919912
0.13962634015954636,0.001834833856472934,0.003502619853032282,0.0016310893194298895
0.17453292519943295,0.0018446803363782278,0.004460406752804359,0.0025788328096985665
0.20943951023931956,0.0018536611300830805,0.005423546278008035,0.0035328119253232922
0.24434609527920614,0.0018617643464913566,0.006386058433972412,0.004487058800551228
0.2792526803190927,0.0018689789587359074,0.0073444379438154395,0.005438079405904814
0.3141592653589793,0.0018752948088993236,0.008296257829136022,0.006383457124058712
0.3490658503988659,0.0018807026098827935,0.00923962128060123,0.00732130461852078
0.3839724354387525,0.0018851939442257283,0.010172919439382743,0.0082500216162725
0.4188790204786391,0.001888761259637649,0.011094714058329907,0.009168177573499504
0.4537856055185257,0.0018913978609540786,0.012003676465969351,0.01007445064779619
0.4886921905584123,0.0018930978981675738,0.012898554034910383,0.010967594178779457
0.5235987755982988,0.00189385635011035,0.01377815099802086,0.011846417520908302
0.5585053606381855,0.0018936690032722477,0.014641317167634131,0.012709774784296439
0.5934119456780721,0.0018925324251216698,0.015486941210506845,0.013556558136882741
0.6283185307179586,0.0018904439311505693,0.016313946651197037,0.014385693841423457
0.6632251157578453,0.0018874015446780233,0.017121289562526766,0.015196139986955182
0.6981317007977318,0.0018834039482075126,0.017907957327066355,0.01598688529989469
0.7330382858376184,0.0018784504248231077,0.018672968092939245,0.016756948659619676
0.767944870877505,0.0018725407877047044,0.019415370686729987,0.017505379083271187
0.8028514559173916,0.0018656752953080161,0.020134244830100685,0.01823125602888651
0.8377580409572782,0.0018578545490422593,0.020828701558502763,0.018933689918479657
0.8726646259971648,0.001849079369317079,0.02149788377315866,0.01961182281645524
0.9075712110370514,0.0018393506445175166,0.022140966878724536,0.020264829221316668
0.9424777960769379,0.001828669145649134,0.022757159473082184,0.020891916944520066
0.9773843811168246,0.0018170352968445171,0.023345704065165847,0.02149232806238444
1.0122909661567112,0.0018044488882827722,0.023905877803214473,0.022065339937166046
1.0471975511965976,0.0017909087127885744,0.024436993200359816,0.02261026631331547
1.0821041362364843,0.0017764120995519823,0.024938398847661185,0.023126458506118164
1.117010721276371,0.0017609543065699612,0.02540948010699879,0.02361330671429743
1.1519173063162575,0.0017445277150555203,0.0258496597779167,0.024070241508560068
1.1868238913561442,0.0017271207398172614,0.026258398733748044,0.024496735579134437
1.2217304763960306,0.0017087163215513705,0.026635196523290355,0.024892305875307958
1.2566370614359172,0.0016892897851339599,0.026979591935010164,0.025256516354173524
1.2915436464758039,0.001668805702709402,0.02729116352130844,0.02558898170454485
1.3264502315156905,0.0016472131296480586,0.027569530080814177,0.025889372688573158
1.361356816555577,0.0016244380469595974,0.027814351097020226,0.026157424289121437
1.3962634015954636,0.0016003707116663823,0.028025327131862447,0.026392949005962736
1.4311699866353502,0.0015748429998005743,0.02820220017307829,0.026595860313281705
1.4660765716752369,0.0015475840606998558,0.028344753934382766,0.026766218192468914
1.5009831567151235,0.001518122285039876,0.028452814107674182,0.02690432937693351
1.53588974175501,0.0014855262352232732,0.028526248566635257,0.027011011806707518
1.5707963267948966,0.001447492703595883,0.02856496752123508,0.027088524963567277
1.6057029118347832,0.0013956782919560245,0.028568923622765023,0.027145331764969877
1.6406094968746698,0.0013198555551613058,0.028538112019162,0.027191859352897467
1.6755160819145565,0.0012449970852328692,0.02847257036048874,0.02720267333355121
1.710422666954443,0.0011812253862536698,0.028372378754551907,0.027167528860573165
1.7453292519943295,0.0011273695741853785,0.028237659672753088,0.027087742707084
1.7802358370342162,0.0010811411172013312,0.02806857780637962,0.026965813866834262
1.8151424220741028,0.001040660665439185,0.027865339873661868,0.026803865994913897
1.8500490071139892,0.0010045374127349335,0.027628194378046214,0.026603566217056583
1.8849555921538759,0.000971755942865426,0.027357431318267664,0.02636624025654493
1.9198621771937625,0.0009415683957757373,0.02705338185095218,0.02609298208726093
1.9547687622336491,0.0009134157988810008,0.026716417906643322,0.0257847337917847
1.9896753472735358,0.0008868737787736359,0.02634695176033497,0.02544234050598586
2.0245819323134224,0.0008616153467448664,0.02594543555781282,0.025066587904133054
2.059488517353309,0.0008373851538490577,0.025512360799366647,0.02465822794244061
2.0943951023931953,0.0008139814175452114,0.025048257782753935,0.02421799673685782
2.129301687433082,0.0007912430253348916,0.02455369500768837,0.023746627121846782
2.1642082724729685,0.0007690401805186466,0.024029278544619836,0.023244857560490818
2.199114857512855,0.0007472675090225506,0.02347565137120821,0.022713438512005208
2.234021442552742,0.0007258389028266575,0.022893492680716446,0.022153136999833255
2.2689280275926285,0.0007046836071303334,0.02228351716763998,0.021564739888367043
2.303834612632515,0.000683743210729325,0.021646474297352447,0.020949056222408537
2.3387411976724017,0.0006629693006903741,0.020983147568539855,0.020306918881835674
2.3736477827122884,0.0006423216111335087,0.02029435377994939,0.019639185736593213
2.4085543677521746,0.0006217665430183657,0.01958094231684069,0.018946740442961955
2.443460952792061,0.0006012759644449899,0.01884379447802801,0.01823049299429412
2.478367537831948,0.0005808262237315744,0.01808382287236556,0.017491380124159354
2.5132741228718345,0.0005603973234028733,0.017301970925251223,0.016730365655380292
2.548180707911721,0.0005399722141284683,0.01649921255330827,0.015948440894897234
2.5830872929516078,0.0005195361747711973,0.015676552092296223,0.015146625194029602
2.6179938779914944,0.0004990762486708658,0.014835024605334451,0.014325966831690169
2.652900463031381,0.0004785807072303529,0.013975696765788338,0.013487544444413378
2.6878070480712677,0.0004580385093625644,0.013099668619679643,0.012632469340129827
2.722713633111154,0.0004374387181598354,0.012208076719438106,0.011761889226915075
2.7576202181510405,0.0004167698216337777,0.011302099447646652,0.010876994229580198
2.792526803190927,0.00039601887724594894,0.010382965942481646,0.009979026687690778
2.827433388230814,0.00037517034937453264,0.009451971159370237,0.009069297403008214
2.8623399732707004,0.00035420441169719305,0.008510501836010601,0.008149213336079464
2.897246558310587,0.0003330942901176404,0.007560082828156385,0.007220326652236392
2.9321531433504737,0.00031180179691833,0.00660246386785952,0.006284426035002823
2.9670597283903604,0.00029026920132182483,0.005639792623980969,0.005343718038632707
3.001966313430247,0.000268402905430053,0.004674989392124103,0.004401218428585449
3.036872898470133,0.00024603601910689026,0.003712648826710024,0.0034616920872209958
3.07177948351002,0.00022282355138332762,0.0027615253204807755,0.002534245298069781
3.1066860685499065,0.00019782063719334095,0.0018425909503506496,0.0016408139004134418
3.141592653589793,0.000320504235677781,0.0010178760542400456,0.000690961733848709
3.1764992386296798,0.0001576193563819958,0.0004420724678675091,0.0002813007243578734
3.2114058236695664,0.00013949648231924473,0.0001810066055838735,3.872019361824387e-05
3.246312408709453,0.00012288343687408745,7.532639535830915e-05,-5.001471025326004e-05
3.2812189937493397,0.00010762675184553775,2.7436581732481793e-05,-8.234270514996672e-05
3.3161255787892263,9.359375882445048e-05,6.430253180620208e-06,-8.90353808203193e-05
3.351032163829113,8.066932047968825e-05,-4.217150455671153e-09,-8.228692403973768e-05
3.385938748868999,6.875317181745483e-05,-1.2056599482844555e-08,-7.014029185328678e-05
3.420845333908886,5.7757745234743385e-05,-1.8536566460148905e-08,-5.89314367058984e-05
3.4557519189487724,4.760638262783884e-05,-2.4456156792285467e-08,-4.85829664371879e-05
3.490658503988659,3.8231859864182915e-05,-3.0027372232005674e-08,-3.9026524433698584e-05
3.5255650890285457,2.9575165617638074e-05,-3.534191633637638e-08,-3.020201084632721e-05
3.5604716740684323,2.1584489348798325e-05,-4.0447908832867323e-08,-2.205662704460716e-05
3.595378259108319,1.4214383123357773e-05,-4.5373240637763785e-08,-1.4544044026462692e-05
3.6302848441482056,7.425069762211987e-06,-5.0134944951910364e-08,-7.623706102408137e-06
3.6651914291880923,1.181876072384078e-06,-5.474364013978834e-08,-1.260257233971548e-06
3.7000980142279785,-4.545224949980469e-06,-5.9205889693905724e-08,4.486019060286564e-06
3.735004599267865,-9.78197468178547e-06,-6.352556433498144e-08,9.718449117450489e-06
3.7699111843077517,-1.455010004945088e-05,-6.770467977041525e-08,1.4482395369680464e-05
3.8048177693476384,-1.8867499503942305e-05,-7.17439385485681e-08,1.8795755565393738e-05
3.839724354387525,-2.2748344276984267e-05,-7.56430951310531e-08,2.2672701181853213e-05
3.8746309394274117,-2.6203091373396188e-05,-7.940121029021459e-08,2.6123690163105973e-05
3.9095375244672983,-2.9238498700821707e-05,-8.301683343830945e-08,2.91554818673834e-05
3.944444109507185,-3.188393836580508e-05,-8.648813641663596e-08,3.1797450229388447e-05
3.9793506945470716,-3.413641088017751e-05,-8.981301359465845e-08,3.404659786658285e-05
4.014257279586958,-3.596325652158892e-05,-9.29891579496964e-08,3.5870267363639224e-05
4.049163864626845,-3.733399678773332e-05,-9.601411958023845e-08,3.7237982668153076e-05
4.084070449666731,-3.821947368416646e-05,-9.88853510458769e-08,3.812058833312058e-05
4.118977034706618,-3.859123809411055e-05,-1.0160024258087697e-07,3.8489637851529675e-05
4.153883619746504,-3.842113459123474e-05,-1.0415614930539046e-07,3.831697844192935e-05
4.1887902047863905,-3.7681092580091495e-05,-1.065504119239714e-07,3.757454216816752e-05
4.223696789826278,-3.634268879055412e-05,-1.087803719433679e-07,3.623390841861075e-05
4.258603374866164,-3.431220154276366e-05,-1.1084338209223344e-07,3.420135816067142e-05
4.293509959906051,-3.144909553840854e-05,-1.1273681236636828e-07,3.133635872604217e-05
4.328416544945937,-2.7596496443006232e-05,-1.1445805189085469e-07,2.748203839111538e-05
4.363323129985824,-2.253791024730715e-05,-1.1600450659263554e-07,2.2421905740714513e-05
4.39822971502571,-1.596791332343179e-05,-1.1737359248219307e-07,1.58505397309496e-05
4.4331363000655974,-7.443382325033395e-06,-1.1856272412784107e-07,7.324819600905554e-06
4.468042885105484,3.7016508460131513e-06,-1.1956929767185562e-07,-3.89525316060527e-06
4.50294947014537,1.851362522950865e-05,-1.203906674401095e-07,-1.900428840153893e-05
4.537856055185257,3.873339943746581e-05,-1.2102411482391647e-07,-3.962909154103904e-05
4.572762640225143,6.748315157746715e-05,-1.2146680761947426e-07,-6.895428141663597e-05
4.60766922526503,0.00011097064475249577,-1.2171574733204455e-07,-0.00011331177339487772
4.642575810304916,0.00018354488973266778,-1.2176770102181307e-07,-0.00018733755522834297
4.6774823953448035,0.00032754044045838686,-1.2161911293268437e-07,-0.0003342128683804873
4.71238898038469,0.000650341979080581,-1.212659892243322e-07,-0.0006634700846514168
4.747295565424577,0.0006981889414164207,-1.2070374627599044e-07,-0.0007122734239910252
4.782202150464463,0.000735176993439994,-1.1992700872839e-07,-0.0007500004603175223
4.817108735504349,0.0007685996084781918,-1.189293367525784e-07,-0.0007840905299845082
4.852015320544236,0.0008001980746010974,-1.1770285139947096e-07,-0.0008163197389445189
4.886921905584122,0.0008307088351936797,-1.1623770937985067e-07,-0.0008474392496069332
4.9218284906240095,0.0008605154027801043,-1.1452134865702805e-07,-0.0008778402321843634
4.956735075663896,0.0008898403329474348,-1.1253737260611834e-07,-0.0009077496769789896
4.991641660703783,0.0009188207920322965,-1.1026383871573982e-07,-0.0009373074717116582
5.026548245743669,0.0009475438497849691,-1.0767051039455732e-07,-0.000966602397291063
5.061454830783556,0.0009760649786125324,-1.0471416586219719e-07,-0.0009956909923506453
5.096361415823442,0.001004418601192847,-1.0132987822684241e-07,-0.0010246083030949309
5.1312680008633285,0.00103262450526136,-9.741261790690744e-08,-0.0010533744079844942
5.1661745859032155,0.0010606919508043666,-9.276974816995041e-08,-0.0010819985595686237
5.201081170943102,0.0010886224132004552,-8.69470457672491e-08,-0.0011104818085102314
5.235987755982989,0.0011164114816339054,-7.794539832619517e-08,-0.0011388176566649098
5.270894341022875,0.001144050213696451,-2.1992225516951326e-08,-0.001166953210195897
5.305800926062762,0.0011715261281990612,4.400998058331698e-07,-0.0011945165509572094
5.340707511102648,0.001198823950390809,1.7169507745463227e-06,-0.001221083478624079
5.375614096142535,0.0012259261835156701,3.7413620177993467e-06,-0.001246703345168184
5.410520681182422,0.0012528135558947141,6.390688397970906e-06,-0.0012714791386146374
5.445427266222308,0.0012794653770523306,9.592397421770381e-06,-0.0012954622871716069
5.480333851262195,0.0013058598262163628,1.3298858532672802e-05,-0.0013186781642080172
5.515240436302081,0.001331974189739075,1.7482054788006285e-05,-0.0013411316187458503
5.550147021341968,0.001357785059374201,2.212888628093736e-05,-0.0013628118742807476
5.585053606381854,0.0013832685001499761,2.7236464936366877e-05,-0.0013836974052166087
5.619960191421741,0.0014084001943258455,3.2808535719390806e-05,-0.0014037596624929716
5.654866776461628,0.001433155566308048,3.885316534208559e-05,-0.0014229655122921232
5.689773361501515,0.001457509892228402,4.5381487487827616e-05,-0.0014412786025851424
5.724679946541401,0.0014814383970290417,5.2407290767619185e-05,-0.0014586598742020033
5.759586531581287,0.0015049163412543716,5.9947310384534264e-05,-0.0014750673576949247
5.794493116621174,0.0015279190992683583,6.802216278413325e-05,-0.0014904553184695922
5.82939970166106,0.0015504222302477404,7.665794542218778e-05,-0.0015047727294305075
5.8643062867009474,0.001572401543019307,8.588863271453958e-05,-0.0015179609411651537
5.899212871740834,0.0015938331555903997,9.575956800601088e-05,-0.0015299502506961968
5.934119456780721,0.0016146935500505506,0.00010633264160234872,-0.0015406547794492129
5.969026041820607,0.001634959623387025,0.00011769428932536201,-0.0015499645265294034
6.003932626860494,0.001654608734649656,0.00012996856242521756,-0.0015577323469174315
6.03883921190038,0.0016736187488141684,0.00014334005510366248,-0.0015637510686867893
6.073745796940266,0.0016919680776235962,0.00015809803960761557,-0.0015677093995684526
6.1086523819801535,0.001709635717630545,0.00017473353868204317,-0.0015690948933011126
6.14355896702004,0.0017266012856162888,0.00019420271743708303,-0.0015669305938915317
6.178465552059927,0.0017428450515237204,0.00021891460533186537,-0.0015587873472223295
6.213372137099813,0.0017583479690082926,0.00025742477296180884,-0.0015360901554266498
6.2482787221397,0.001773091703682987,0.00033537453623684957,-0.0014731790015197971
