theta,z_plus,lambda_top,edge_margin
0.0,0.002002049237930907,0.00046633755967297083,-0.0015757526630165543
0.03490658503988659,0.0020175503321996214,0.0009445410360249479,-0.0011133603028186658
0.06981317007977318,0.0020321162923760813,0.0018754890702628283,-0.00019726954796077476
0.10471975511965978,0.0020457291782468197,0.0030037721670293557,0.0009171284052175996
0.13962634015954636,0.002058372013901498,0.004187837389060957,0.0020882979348814286
0.17453292519943295,0.0020700288053979356,0.005388952500691265,0.003277523119185371
0.20943951023931956,0.002080684555776976,0.006593814403506179,0.004471516156613663
0.24434609527920614,0.0020903252773328256,0.007796227219386571,0.005664095436507088
0.2792526803190927,0.002098938001020141,0.00899249875360026,0.0068515819925597165
0.3141592653589793,0.0021065107828516006,0.010179991265133257,0.008031350266624625
0.3490658503988659,0.0021130327071079143,0.011356575740373551,0.009201282379123479
0.3839724354387525,0.0021184938861448376,0.01252039722430422,0.010359533460436485
0.4188790204786391,0.0021228854565372005,0.013669763396775812,0.011504420231107867
0.4537856055185257,0.0021261995712461663,0.014803087578152564,0.012634364015481474
0.4886921905584123,0.0021284293874303073,0.01591885792538513,0.013747859950206217
0.5235987755982988,0.0021295690494402735,0.017015620133070522,0.014843459702641443
0.5585053606381855,0.002129613666436456,0.018091967504418487,0.0159197615646533
0.5934119456780721,0.0021285592839433557,0.01914653523722013,0.01697540476759791
0.6283185307179586,0.0021264028484957115,0.020177997216070567,0.01800906631060494
0.6632251157578453,0.002123142164329521,0.021185064343252374,0.019019459335636264
0.6981317007977318,0.00211877584081198,0.022166483838764968,0.02000533248113675
0.7330382858376184,0.0021133032289689852,0.02312103916267389,0.020965469869125525
0.767944870877505,0.002106724345030681,0.024047550342058688,0.021898691510127393
0.8028514559173916,0.00209903977833753,0.02494487456208496,0.022803853988180682
0.8377580409572782,0.0020902505801788187,0.02581190692826823,0.023679851336485834
0.8726646259971648,0.002080358129096618,0.026647581337006628,0.024525616045328078
0.9075712110370514,0.0020693639667702735,0.02745087141084377,0.025340120164738092
0.9424777960769379,0.0020572695966353644,0.028220791467709366,0.026122376479141295
0.9773843811168246,0.002044076234639011,0.028956397501984033,0.026871439742652242
1.0122909661567112,0.002029784497609597,0.029656788161125443,0.027586407973563654
1.0471975511965976,0.002014394009025755,0.03032110570569458,0.02826642381648831
1.0821041362364843,0.00199790289354752,0.030948536943527907,0.028910675992109437
1.117010721276371,0.0019803071189428917,0.03153831413089197,0.029518400869570218
1.1519173063162575,0.001961599624333046,0.032089715834984364,0.030088884218164656
1.1868238913561442,0.0019417691423213802,0.03260206775328258,0.03062146322811477
1.2217304763960306,0.0019207985711189555,0.03307474348609712,0.031115528943555782
1.2566370614359172,0.0018986626653163432,0.03350716525934491,0.03157052934072224
1.2915436464758039,0.0018753246590612796,0.03389880459507244,0.03198597344282993
1.3264502315156905,0.0018507311475980867,0.03424918292766749,0.03236143715711744
1.361356816555577,0.0018248039868678058,0.03455787216403039,0.03269657209742523
1.3962634015954636,0.0017974267767083842,0.03482449518625107,0.03299111987400852
1.4311699866353502,0.0017684207484996565,0.03504872629556954,0.033244937132099896
1.4660765716752369,0.0017374978362171183,0.035230291596599406,0.033458043803657946
1.5009831567151235,0.0017041578007371261,0.0353689693209688,0.03363072836421693
1.53588974175501,0.0016674200999034355,0.03546459008969409,0.033763821587792585
1.5707963267948966,0.0016249054552848977,0.03551703711374462,0.03385963354935402
1.6057029118347832,0.0015683785818202671,0.03552624633239536,0.03392650017893869
1.6406094968746698,0.001486875972288969,0.035492206489089975,0.033975592997355225
1.6755160819145565,0.0014051018564914966,0.03541495914466501,0.03398175525104369
1.710422666954443,0.0013347909649466447,0.03529459862790385,0.03393311184365827
1.7453292519943295,0.001275077100749083,0.035131271923514645,0.03383069328075058
1.7802358370342162,0.0012236072768165621,0.03492517849774565,0.03367709907539276
1.8151424220741028,0.0011783840723710683,0.03467657006197935,0.03347461830816086
1.8500490071139892,0.0011379097999295006,0.03438575027477872,0.033225082278850626
1.8849555921538759,0.001101083220889358,0.03405307438299529,0.032929969497688144
1.9198621771937625,0.0010670896692884806,0.033678948802703536,0.03259051734002929
1.9547687622336491,0.0010353184376325612,0.033263830640886796,0.032207805834501585
1.9896753472735358,0.0010053049370272206,0.032808227158989955,0.03178281612322219
2.0245819323134224,0.0009766907055107105,0.032312695179663016,0.03131647066004209
2.059488517353309,0.0009491955812049282,0.031777840438270644,0.030809660945441616
2.0943951023931953,0.0009225980849283782,0.03120431688103751,0.030263266834410565
2.129301687433082,0.0008967213766219124,0.03059282591206163,0.02967817010790728
2.1642082724729685,0.0008714230424309449,0.029944115591876354,0.02905526408859679
2.199114857512855,0.0008465875524674095,0.02925897979080871,0.028395460487291954
2.234021442552742,0.0008221206082381295,0.02853825730111667,0.02769969428071378
2.2689280275926285,0.0007979448464833643,0.027782830912846827,0.026968927169433797
2.303834612632515,0.000773996529937265,0.026993626459637363,0.026204149999101353
2.3387411976724017,0.0007502229651782934,0.02617161184242784,0.02540638441794598
2.3736477827122884,0.0007265804621385634,0.025317796041429787,0.024576683970048453
2.4085543677521746,0.0007030327009550722,0.024433228130059107,0.023716134775084934
2.443460952792061,0.0006795494073374445,0.02351899630928827,0.022825855913804077
2.478367537831948,0.00065610526244776,0.022576226987754106,0.02190699962005739
2.5132741228718345,0.0006326789906525347,0.021606083943072674,0.020960751372607087
2.548180707911721,0.0006092525804873567,0.020609767614973427,0.019988329982876325
2.5830872929516078,0.0005858106020564031,0.01958851460404512,0.01899098778994759
2.6179938779914944,0.000562339588563608,0.018543597486107302,0.017970011105772423
2.652900463031381,0.0005388274509018212,0.017476325110193335,0.016926721110273477
2.6878070480712677,0.0005152628917752754,0.016388043643400057,0.015862475493789274
2.722713633111154,0.0004916347784037164,0.015280138787109317,0.014778671313137526
2.7576202181510405,0.00046793141768405416,0.014154039871228652,0.013676749825190918
2.792526803190927,0.0004441396491695165,0.0130112270457046,0.012558204603551693
2.827433388230814,0.0004202436178986832,0.01185324376091186,0.011424595270655204
2.8623399732707004,0.00039622298643687056,0.010681718667290016,0.010277571221124408
2.897246558310587,0.0003720501376632201,0.009498405162841582,0.009118914022425097
2.9321531433504737,0.0003476854693788732,0.008305256102233795,0.007950616923467345
2.9670597283903604,0.00032306881445480376,0.007104574053677114,0.006775043862933214
3.001966313430247,0.00029810217562696925,0.005899339931756632,0.0055952757126171235
3.036872898470133,0.0002726100503899437,0.004694016726922124,0.004415954475524381
3.07177948351002,0.00024622805733608773,0.0034968340666079725,0.003245681448125163
3.1066860685499065,0.00021795368366301658,0.0023277295337195743,0.0021054167763832976
3.141592653589793,0.0003525628076188888,0.0012526352983294226,0.000893021234558156
3.1764992386296798,0.00016914643361201786,0.0004899508514226132,0.00031742148913835506
3.2114058236695664,0.00014787456671456326,0.00018073234405419737,2.9900286005342858e-05
3.246312408709453,0.0001285142385730442,7.244549603024298e-05,-5.8639027314262104e-05
3.2812189937493397,0.0001108501017943854,3.0007032138864e-05,-8.306007169140911e-05
3.3161255787892263,9.469879817197141e-05,7.21406299122656e-06,-8.937871114418427e-05
3.351032163829113,7.990338680704525e-05,-4.746881799029564e-09,-8.150620142498519e-05
3.385938748868999,6.632891202849386e-05,-1.3539624193799143e-08,-6.766902989325754e-05
3.420845333908886,5.3858850949783794e-05,-2.109703474020253e-08,-5.495712500351967e-05
3.4557519189487724,4.239224675504322e-05,-2.8151853841437344e-08,-4.326824354398552e-05
3.490658503988659,3.1841381792452805e-05,-3.489429658446856e-08,-3.2513103724886324e-05
3.5255650890285457,2.2129879736112935e-05,-4.1404419280545335e-08,-2.261388175011574e-05
3.5604716740684323,1.3191152186176526e-05,-4.772257434514766e-08,-1.3502697804245205e-05
3.595378259108319,4.96712469281467e-06,-5.3870867713791906e-08,-5.1203380543847555e-06
3.6302848441482056,-2.5928078738717486e-06,-5.986172528597612e-08,2.5329461485857724e-06
3.6651914291880923,-9.532635133832886e-06,-6.570192302587949e-08,9.466933210807006e-06
3.7000980142279785,-1.5890423602876265e-05,-7.139470965667599e-08,1.581902889321959e-05
3.735004599267865,-2.1698869738590577e-05,-7.694102196386982e-08,2.1621928716626706e-05
3.7699111843077517,-2.6989851645313233e-05,-8.234022696193214e-08,2.69075114183513e-05
3.8048177693476384,-3.193347258493872e-05,-8.759059911518181e-08,3.184588198582354e-05
3.839724354387525,-3.6559215492241334e-05,-9.268964043694778e-08,3.646652585180439e-05
3.8746309394274117,-4.080997930895009e-05,-9.763430289348329e-08,4.071234500605661e-05
3.9095375244672983,-4.463793228860571e-05,-1.024211475833291e-07,4.4535511141022384e-05
3.944444109507185,-4.800105728546687e-05,-1.0704646155413193e-07,4.7894010823912736e-05
3.9793506945470716,-5.0860991701734625e-05,-1.1150634534847297e-07,5.074948535638615e-05
4.014257279586958,-5.318157134259097e-05,-1.1579677974857264e-07,5.30657745628424e-05
4.049163864626845,-5.492777116061622e-05,-1.1991367733367335e-07,5.4807857483282546e-05
4.084070449666731,-5.606487494006359e-05,-1.2385292265401005e-07,5.5941022017409575e-05
4.118977034706618,-5.655778131821658e-05,-1.2761040363364933e-07,5.643017091458293e-05
4.153883619746504,-5.637040187809373e-05,-1.3118203601193704e-07,5.623921984208179e-05
4.1887902047863905,-5.54651493341467e-05,-1.3456378207373431e-07,5.533058555207296e-05
4.223696789826278,-5.3802568604412094e-05,-1.377516645131049e-07,5.366481693989899e-05
4.258603374866164,-5.1341257824984495e-05,-1.4074177597810265e-07,5.1200516049006395e-05
4.293509959906051,-4.8038412967886006e-05,-1.4353028458788725e-07,4.7894882683298116e-05
4.328416544945937,-4.385172645745884e-05,-1.461134355218865e-07,4.370561302193695e-05
4.363323129985824,-3.870659547679746e-05,-1.4848754857052068e-07,3.855810792822694e-05
4.39822971502571,-3.208254543714381e-05,-1.5064901134892517e-07,3.1931896425794885e-05
4.4331363000655974,-2.3440300197309613e-05,-1.5259426764156167e-07,2.3287705929668053e-05
4.468042885105484,-1.2086421919637373e-05,-1.5431980008507375e-07,1.19321021195523e-05
4.50294947014537,3.0744711894576302e-06,-1.5582210604313342e-07,-3.291782719289916e-06
4.537856055185257,2.3876753582004473e-05,-1.570976650838611e-07,-2.4511386318728424e-05
4.572762640225143,5.363910248852901e-05,-1.5814289582883368e-07,-5.4870027434128416e-05
4.60766922526503,9.904085454940696e-05,-1.5895409907236996e-07,-0.00010118062573946746
4.642575810304916,0.00017580972111502763,-1.5952738277836886e-07,-0.00017948544292010658
4.6774823953448035,0.00033187553985947665,-1.5985856269580377e-07,-0.000338672909219362
4.71238898038469,0.0006896164381738228,-1.5994302946315724e-07,-0.0007035687099667625
4.747295565424577,0.0007423426857417057,-1.5977556867404765e-07,-0.0007573493150252139
4.782202150464463,0.0007839516342565587,-1.5935011334923266e-07,-0.0007997900170550391
4.817108735504349,0.000821808877178862,-1.5865939676700985e-07,-0.0008384037141192063
4.852015320544236,0.0008577491562438678,-1.5769445414671888e-07,-0.0008750618338228918
4.886921905584122,0.0008925559872408318,-1.564438875116738e-07,-0.0009105635508731601
4.9218284906240095,0.0009266385536619462,-1.5489274546881874e-07,-0.000945326217480654
4.956735075663896,0.0009602340822267634,-1.5302074936135492e-07,-0.00097959178462066
4.991641660703783,0.0009934881562813666,-1.5079935295443046e-07,-0.0010135087187599485
5.026548245743669,0.0010264924210019585,-1.4818659409718198e-07,-0.0010471704560160947
5.061454830783556,0.0010593044198644495,-1.4511746572246061e-07,-0.0010806356257274609
5.096361415823442,0.0010919589358807202,-1.4148441978623404e-07,-0.0011139395990181207
5.1312680008633285,0.001124474904085717,-1.3709400907537379e-07,-0.0011471014961765068
5.1661745859032155,0.0011568598454134407,-1.3155990619319471e-07,-0.0011801286022279029
5.201081170943102,0.001189112832713304,-1.240146557113084e-07,-0.0012130191040232816
5.235987755982989,0.0012212265463906182,-1.1234395780457803e-07,-0.0012457634212762352
5.270894341022875,0.0012531887432529532,-9.154064531042816e-08,-0.0012783440587633228
5.305800926062762,0.0012849833345723312,-4.9190157200049296e-08,-0.0013107321914209778
5.340707511102648,0.0013165911964828293,6.432033463622708e-08,-0.0013428587000778498
5.375614096142535,0.0013479907925010599,5.471046033589574e-07,-0.001374403503747722
5.410520681182422,0.0013791586612988138,1.9529829909132448e-06,-0.0014047888515338767
5.445427266222308,0.0014100698059589052,4.237976263284949e-06,-0.0014340332258147984
5.480333851262195,0.0014406980099474888,7.291388820258805e-06,-0.0014622205813261799
5.515240436302081,0.0014710160977089756,1.1038400430818478e-05,-0.0014893980192323367
5.550147021341968,0.0015009961528047037,1.5420335040994448e-05,-0.0015155957408198033
5.585053606381854,0.0015306097030604398,2.0394732280567606e-05,-0.0015408271648410811
5.619960191421741,0.0015598278797505174,2.5933205726498432e-05,-0.0015650912316190293
5.654866776461628,0.0015886215561006507,3.201883913501469e-05,-0.001588375148087649
5.689773361501515,0.0016169614691232347,3.864410693793635e-05,-0.0016106565915677631
5.724679946541401,0.0016448183278654283,4.5809504910308606e-05,-0.0016319051895124282
5.759586531581287,0.0016721629104550252,5.352286029096374e-05,-0.001652083308373162
5.794493116621174,0.001698966151805297,6.179926400485369e-05,-0.001671146210836549
5.82939970166106,0.0017251992234414355,7.066162384239287e-05,-0.0016890415840678712
5.8643062867009474,0.0017508336066048489,8.014194548034235e-05,-0.0017057083332566035
5.899212871740834,0.0017758411595540276,9.028361275713002e-05,-0.0017210743699879781
5.934119456780721,0.001800194179794868,0.0001011452057150357,-0.0017350528576757296
5.969026041820607,0.0018238654618267368,0.00011280688762461303,-0.0017475358834386585
6.003932626860494,0.0018468283508740158,0.00012538141231917372,-0.0017583835055723224
6.03883921190038,0.0018690567929793666,0.0001390341194459497,-0.0017674038093930043
6.073745796940266,0.001890525381759438,0.00015402200076447512,-0.0017743138886301517
6.1086523819801535,0.001911209402062086,0.00017077730050142417,-0.0017786562896019036
6.14355896702004,0.0019310848707134402,0.00019010677963463284,-0.001779599788493076
6.178465552059927,0.0019501285745009288,0.0002137332769007302,-0.0017753978690902173
6.213372137099813,0.0019683181055027248,0.0002461523865119735,-0.0017615320811008059
6.2482787221397,0.0019856318938436418,0.0003054112960171833,-0.0017199332357033313
