theta,z_plus,lambda_top,edge_margin
0.0,0.001881044682339066,0.000539428775776476,-0.0013792368002093713
0.03490658503988659,0.0018951015010344242,0.0009964395731319599,-0.0009365639579231528
0.06981317007977318,0.0019082989631131798,0.001784901306554653,-0.00016156363582079053
0.10471975511965978,0.0019206207984197026,0.0027359257419745904,0.000776892527586494
0.13962634015954636,0.001932051611421573,0.0037420361597409607,0.0017713435160909563
0.17453292519943295,0.0019425768970514937,0.004767343997226445,0.0027859155622339212
0.20943951023931956,0.0019521830540623914,0.005798375298179529,0.00380714858303589
0.24434609527920614,0.001960857395806299,0.006828731928898419,0.0048286573851759945
0.2792526803190927,0.0019685881583241353,0.007854664642727431,0.005846704721236813
0.3141592653589793,0.0019753645056069646,0.008873577690657265,0.006858705894938161
0.3490658503988659,0.0019811765318586763,0.009883442193990453,0.007862642131494603
0.3839724354387525,0.0019860152605540404,0.010882537044996497,0.008856801479231376
0.4188790204786391,0.0019898726400431753,0.01186932344379318,0.009839653350949142
0.4537856055185257,0.00199274153540169,0.012842379660112233,0.01080978329400251
0.4886921905584123,0.0019946157161625927,0.013800365204820513,0.01176585717433467
0.5235987755982988,0.0019954898394882927,0.014742000338459231,0.012706600702181173
0.5585053606381855,0.001995359428244446,0.01566605402549992,0.013630787408690585
0.5934119456780721,0.0019942208433164545,0.016571336756076603,0.01453723149589382
0.6283185307179586,0.001992071249356783,0.01745669628223966,0.015424783607895742
0.6632251157578453,0.001988908572956964,0.018321015156035226,0.016292328411619122
0.6981317007977318,0.0019847314519888526,0.019163209411248536,0.017138783330219905
0.7330382858376184,0.001979539174536925,0.019982227986431393,0.01796309802840373
0.767944870877505,0.001973331605421698,0.02077705263586102,0.01876425439833089
0.8028514559173916,0.001966109097757918,0.021546698164622027,0.01954126688490895
0.8377580409572782,0.001957872386249225,0.022290212879310146,0.020293183045335936
0.8726646259971648,0.0019486224579204135,0.02300667918087527,0.02101908427379645
0.9075712110370514,0.0019383603946223527,0.023695214248796073,0.021718086646281273
0.9424777960769379,0.0019270871797546362,0.02435497078076866,0.022389341857418935
0.9773843811168246,0.0019148034589977258,0.024985137762188636,0.023032038234010954
1.0122909661567112,0.001901509241061701,0.02558494124662817,0.023645401820745236
1.0471975511965976,0.0018872035189646023,0.02615364513333481,0.02422869754399092
1.0821041362364843,0.0018718837842212276,0.026690551931196127,0.024781230471290473
1.117010721276371,0.001855545394023455,0.027195003501068793,0.025302347199164868
1.1519173063162575,0.0018381807324341175,0.027666381770163867,0.025791437423081067
1.1868238913561442,0.00181977807626707,0.028104109413504857,0.026247935775712446
1.2217304763960306,0.0018003200264764972,0.02850765049847328,0.026671324071467252
1.2566370614359172,0.0017797812810365747,0.028876511089216225,0.02706113418255892
1.2915436464758039,0.0017581253748212814,0.029210239808278776,0.02741695192596107
1.3264502315156905,0.0017352997319020622,0.02950842835329026,0.027738422626750157
1.361356816555577,0.0017112278233767856,0.029770711966903687,0.028025259587059367
1.3962634015954636,0.0016857960558468487,0.02999676985849275,0.028277257881528964
1.4311699866353502,0.001658830321286389,0.03018632557636317,0.02849431864865105
1.4660765716752369,0.0016300501918705482,0.030339147329449923,0.028676496133741965
1.5009831567151235,0.0015989679667264168,0.030455048257658268,0.028824100931597322
1.53588974175501,0.0015646232116167272,0.03053388665017011,0.028937970974321048
1.5707963267948966,0.0015246575542623465,0.030575566111187006,0.02902041540583941
1.6057029118347832,0.0014706717879259452,0.0305800356727167,0.029079950449032235
1.6406094968746698,0.001392050874879108,0.03054728985413966,0.02912739796176297
1.6755160819145565,0.0013139505464637258,0.03047736866841503,0.029137139111022028
1.710422666954443,0.0012471858334758216,0.030370357574905166,0.029098228024759826
1.7453292519943295,0.0011906855128409725,0.030226387378919507,0.029011888155821716
1.7802358370342162,0.00114211566209735,0.030045634078198255,0.02888067610285896
1.8151424220741028,0.0010995356648359734,0.02982831865668338,0.028706792278550688
1.8500490071139892,0.001061502079322843,0.029574706826056812,0.028491974705147513
1.8849555921538759,0.0010269581004263403,0.02928510871566766,0.028237611453232794
1.9198621771937625,0.0009951239929643864,0.02895987851162793,0.027944852038804254
1.9547687622336491,0.0009654162453549075,0.028599414046029725,0.027614689475767718
1.9896753472735358,0.000937391467827344,0.028204156337439258,0.027248017040255368
2.0245819323134224,0.0009107078055405453,0.027774589084054634,0.02684566712240328
2.059488517353309,0.0008850981833230548,0.027311238111194257,0.02640843796420474
2.0943951023931953,0.0008603514916973635,0.026814670775120085,0.025937112253588773
2.129301687433082,0.0008362991447552596,0.026285495325617837,0.02543247019796747
2.1642082724729685,0.0008128053199655487,0.025724360230283367,0.024895298803918508
2.199114857512855,0.0007897597596854153,0.02513195346413785,0.024326398509258728
2.234021442552742,0.000767072382256853,0.024509001769073155,0.023726587939171165
2.2689280275926285,0.0007446691902745451,0.023856269888787782,0.023096707314707747
2.303834612632515,0.000722489121585469,0.02317455978643075,0.02243762088241357
2.3387411976724017,0.000700481594109702,0.022464709854289243,0.021750218628297346
2.3736477827122884,0.0006786045670348842,0.02172759412778391,0.02103541746940833
2.4085543677521746,0.0006568229899505074,0.020964121520141793,0.020294162070392276
2.443460952792061,0.0006351075454684384,0.020175235099963745,0.019527425403585937
2.478367537831948,0.0006134336146012345,0.019361911442368818,0.01873620915547556
2.5132741228718345,0.0005917804107342223,0.018525160096857046,0.01792154407790814
2.548180707911721,0.0005701302394208323,0.017666023233718665,0.017084490389509415
2.5830872929516078,0.0005484678486824752,0.016785575559391024,0.0162261383537349
2.6179938779914944,0.0005267798386588311,0.01588492463581941,0.015347609200387401
2.652900463031381,0.0005050541004725023,0.014965211810328827,0.014450056627846875
2.6878070480712677,0.0004832792516009293,0.014027614079881645,0.013534669243248698
2.722713633111154,0.00046144402760402837,0.013073347412109259,0.01260267450395315
2.7576202181510405,0.00043953657500799383,0.012103672392470802,0.011655345085962648
2.792526803190927,0.0004175435619894756,0.011119903696306735,0.01069400926307747
2.827433388230814,0.00039544897097838863,0.010123426075876359,0.009720068125478402
2.8623399732707004,0.00037323233633872497,0.009115721920489095,0.008735024937423595
2.897246558310587,0.00035086598619002543,0.00809842043111484,0.007740537125201014
2.9321531433504737,0.000328310405576262,0.0070733896669910225,0.006738513053303235
2.9670597283903604,0.00030550579233952447,0.006042920075337154,0.00573130416715084
3.001966313430247,0.00028235509260105554,0.005010121609620112,0.004722119415167036
3.036872898470133,0.0002586850860632121,0.003979878660701878,0.0037160198729174016
3.07177948351002,0.00023413734559995042,0.002961479190236877,0.0027226590977249276
3.1066860685499065,0.00020772919365144785,0.001977127313805097,0.00176524353628062
3.141592653589793,0.0003364756605442816,0.0010924002102542401,0.0007491950364990729
3.1764992386296798,0.0001638531025057658,0.00047151696086492165,0.00030438679630904054
3.2114058236695664,0.00014441349892859457,0.00018824438847064683,4.0942619563480356e-05
3.246312408709453,0.0001266575422985224,7.815996308015609e-05,-5.103073006433675e-05
3.2812189937493397,0.00011040478711249849,3.224736694505612e-05,-8.036551590969235e-05
3.3161255787892263,9.550043202362562e-05,6.940831052090593e-06,-9.046960961200753e-05
3.351032163829113,8.181106742052358e-05,-5.604779552617846e-09,-8.345289354848668e-05
3.385938748868999,6.922125540289937e-05,-1.4944470868061158e-08,-7.062062498182543e-05
3.420845333908886,5.763076081186323e-05,-2.297824393946575e-08,-5.8806354272039966e-05
3.4557519189487724,4.6952296259186285e-05,-3.045252873030541e-08,-4.792179471310032e-05
3.490658503988659,3.710967670098999e-05,-3.7558838824746975e-08,-3.788942907383454e-05
3.5255650890285457,2.803630337831444e-05,-4.4382381273497256e-08,-2.8641411827154226e-05
3.5604716740684323,1.9673915236420363e-05,-5.096906683236684e-08,-2.0118362607981137e-05
3.595378259108319,1.197155988432037e-05,-5.734597754143662e-08,-1.2268337059548212e-05
3.6302848441482056,4.884746945009779e-06,-6.352975759724048e-08,-5.045971641507215e-06
3.6651914291880923,-1.6252448665530285e-06,-6.953069926890499e-08,1.5557141672841235e-06
3.7000980142279785,-7.591928777905316e-06,-7.535497446485024e-08,7.516573803440466e-06
3.735004599267865,-1.3044055297221537e-05,-8.100595815630642e-08,1.296304933906523e-05
3.7699111843077517,-1.8005953177697082e-05,-8.648506348305659e-08,1.7919468114214027e-05
3.8048177693476384,-2.2497772904353568e-05,-9.179229488170175e-08,2.2405980609471865e-05
3.839724354387525,-2.6535635297406678e-05,-9.69266289667573e-08,2.643870866843992e-05
3.8746309394274117,-3.0163049765564366e-05,-1.0188628527598107e-07,3.0061163480288384e-05
3.9095375244672983,-3.343682696590767e-05,-1.0666892387564229e-07,3.3330158042032024e-05
3.944444109507185,-3.6318578901378284e-05,-1.1127179279417913e-07,3.620730710858411e-05
3.9793506945470716,-3.877089812688953e-05,-1.1569184006024854e-07,3.865520628682928e-05
4.014257279586958,-4.075955078586724e-05,-1.1992580012223218e-07,4.063962498574501e-05
4.049163864626845,-4.225226572760549e-05,-1.2397026128746788e-07,4.212829546631802e-05
4.084070449666731,-4.3217868725892115e-05,-1.2782171877220103e-07,4.309004700711991e-05
4.118977034706618,-4.362564153299924e-05,-1.3147661659001035e-07,4.349416491640923e-05
4.153883619746504,-4.3444855434226235e-05,-1.3493138056873607e-07,4.33099240536575e-05
4.1887902047863905,-4.2644487534671515e-05,-1.3818244412491164e-07,4.2506305090546606e-05
4.223696789826278,-4.119319980634385e-05,-1.4122626794877175e-07,4.105197353839508e-05
4.258603374866164,-3.905977855062834e-05,-1.4405935438946783e-07,3.891571919623887e-05
4.293509959906051,-3.6187864003340394e-05,-1.4667825705430846e-07,3.6041185746286085e-05
4.328416544945937,-3.233363294947559e-05,-1.490795858931325e-07,3.218455336358246e-05
4.363323129985824,-2.725709121944008e-05,-1.512600078472537e-07,2.7105831211592827e-05
4.39822971502571,-2.064801422895888e-05,-1.5321624293256688e-07,2.049479798602631e-05
4.4331363000655974,-1.2055463233617171e-05,-1.5494505542951906e-07,1.1900518178187651e-05
4.468042885105484,-8.002735146238489e-07,-1.564432396262402e-07,6.438302749976087e-07
4.50294947014537,1.4187463263643397e-05,-1.5770759928723276e-07,-1.4628920128203498e-05
4.537856055185257,3.469337375830897e-05,-1.5873491968401393e-07,-3.5545976153159165e-05
4.572762640225143,6.393351258210888e-05,-1.5952193058369917e-07,-6.537170476433475e-05
4.60766922526503,0.00010834025141676738,-1.600652580049477e-07,-0.00011066712170310768
4.642575810304916,0.00018291590161479613,-1.6036136174394393e-07,-0.000186734581008836
4.6774823953448035,0.00033261973213951485,-1.6040645454519616e-07,-0.0003394325332368503
4.71238898038469,0.0006746872397769145,-1.601963971822473e-07,-0.0006883411809696351
4.747295565424577,0.0007247949171205627,-1.597265613768716e-07,-0.0007394505420243508
4.782202150464463,0.0007637612223134584,-1.5899164900083424e-07,-0.0007791954384087285
4.817108735504349,0.0007990399972454021,-1.5798545073447695e-07,-0.0008151787826410446
4.852015320544236,0.000832432593384397,-1.567005191387424e-07,-0.0008492379457712237
4.886921905584122,0.0008647029535799364,-1.5512771797408761e-07,-0.0008821521403695092
4.9218284906240095,0.0008962492411148874,-1.532555879332535e-07,-0.0009143274815251183
4.956735075663896,0.0009273024632479833,-1.5106943191320148e-07,-0.0009459995819448562
4.991641660703783,0.0009580048351893699,-1.4854995679818865e-07,-0.0009773134818499554
5.026548245743669,0.0009884464323097982,-1.456711844670832e-07,-0.0010083610321404615
5.061454830783556,0.0010186844218061208,-1.423970961589557e-07,-0.001039200507338402
5.096361415823442,0.0010487540363959974,-1.3867593612060955e-07,-0.001069867793060038
5.1312680008633285,0.0010786752523191142,-1.3442980628838248e-07,-0.001100383187171785
5.1661745859032155,0.0011084570672324036,-1.2953357074902912e-07,-0.0011307557421478007
5.201081170943102,0.0011381003586290108,-1.23764228469696e-07,-0.0011609861300300606
5.235987755982989,0.0011675998628356261,-1.1662588455709499e-07,-0.0011910684859768959
5.270894341022875,0.0011969455876674115,-1.0450834459757644e-07,-0.0012209890077653574
5.305800926062762,0.001226123848195003,-1.4452320117486231e-08,-0.0012506607774790206
5.340707511102648,0.00125511804452368,6.035311259109664e-07,-0.0012796168742882428
5.375614096142535,0.001283909258582105,2.266224078984503e-06,-0.0013073212196747625
5.410520681182422,0.001312476721160644,4.7135072587999275e-06,-0.0013340127483250567
5.445427266222308,0.0013407981841237922,7.786843056006703e-06,-0.0013598273047502611
5.480333851262195,0.0013688502221093288,1.14111286632152e-05,-0.0013848160978883
5.515240436302081,0.0013966084809606766,1.5536992186722943e-05,-0.001409003658393167
5.550147021341968,0.0014240478853338318,2.013220504316765e-05,-0.0014323966379973406
5.585053606381854,0.0014511428145902565,2.5177552843531658e-05,-0.0014549881180385298
5.619960191421741,0.0014778672537397116,3.06632879861667e-05,-0.0014767613108283392
5.654866776461628,0.0015041949245161233,3.6586534698367144e-05,-0.0014976922883080787
5.689773361501515,0.0015300994004488787,4.294974321545747e-05,-0.0015177516452423987
5.724679946541401,0.0015555542088936374,4.9760052017774756e-05,-0.0015369052410537354
5.759586531581287,0.0015805329223178306,5.702939505415088e-05,-0.0015551141857100361
5.794493116621174,0.0016050092406321988,6.477525225312212e-05,-0.0015723341731917206
5.82939970166106,0.0016289570659763818,7.302203709442282e-05,-0.0015885141702014867
5.8643062867009474,0.0016523505710720442,8.180324908815508e-05,-0.0016035943334053299
5.899212871740834,0.0016751642620285723,9.116472938124736e-05,-0.0016175028178878963
5.934119456780721,0.0016973730363077871,0.00010116973398432238,-0.0016301507630496204
5.969026041820607,0.0017189522364131427,0.00011190729771017415,-0.0016414239834312316
6.003932626860494,0.001739877699756869,0.00012350706870707307,-0.001651168185044933
6.03883921190038,0.0017601258050686263,0.00013616808516051434,-0.0016591602360094845
6.073745796940266,0.001779673515636637,0.00015022121255869203,-0.0016650457733906777
6.1086523819801535,0.001798498419612976,0.0001662857271311953,-0.0016681826608740402
6.14355896702004,0.001816578767565921,0.00018574286636416763,-0.0016671674765530717
6.178465552059927,0.001833893507421632,0.00021245228521203256,-0.001658119092358032
6.213372137099813,0.001850422316903144,0.0002577683412254312,-0.0016296624220157757
6.2482787221397,0.0018661456335453534,0.00034605966311232586,-0.0015574088831039347
