theta,z_plus,z_plus_cvec,lambda_top,edge_margin
0.0,1.011303518398443,5.025128106889654,0.001851158085581525,-1.0124862708680566
0.05235987755982988,1.0622569777094615,5.070578917886871,0.0019130689292119665,-1.063530679713378
0.10471975511965977,1.1103058001582682,5.102134870380938,0.0019853455972686177,-1.1116513719614742
0.15707963267948966,1.1553183538459089,5.119709507784436,0.0020767957672250007,-1.1567075131402216
0.20943951023931953,1.1971713741899057,5.123254720358499,0.002203947615481084,-1.1985589406969943
0.2617993877991494,1.2357503042083369,5.112760878876798,0.002395490209208223,-1.2370620649117536
0.3141592653589793,1.2709496120219825,5.088256863677968,0.002686047271568154,-1.2720764135864804
0.36651914291880916,1.3026730848352017,5.049809989187179,0.0030856360902312965,-1.303495467999476
0.41887902047863906,1.3308340987676,4.997525824345167,0.003566176135510332,-1.3312604249283924
0.47123889803846897,1.3553558640290373,4.931547909763632,0.004091531968943707,-1.3553303996521808
0.5235987755982988,1.3761716450613175,4.852057372839807,0.004637019778292279,-1.3756631402182091
0.5759586531581287,1.3932249554116867,4.759272442527083,0.005188315431385258,-1.3922163148465365
0.6283185307179586,1.406469727255491,4.653447865997991,0.005736943125720739,-1.4049521933115365
0.6806784082777885,1.4158704556450254,4.534874230091093,0.006277464685083974,-1.4138406023268764
0.7330382858376183,1.4214023177209831,4.403877191267956,0.006806057626575891,-1.4188604670475702
0.7853981633974483,1.4230512672656024,4.260816618923925,0.00731980894778503,-1.420000612119614
0.8377580409572781,1.4208141050711423,4.106085658465714,0.00781635325790931,-1.4172601941284462
0.890117918517108,1.4146985255866051,3.9401097228711226,0.008293679355842312,-1.4106489418075225
0.9424777960769379,1.4047231400915614,3.7633454249552485,0.008750022552074927,-1.4001872869597611
0.9948376736367678,1.3909174760678489,3.576279468089934,0.009183802601317542,-1.385906425894735
1.0471975511965976,1.3733219512510444,3.379427522039106,0.009593586935271094,-1.3678483301695266
1.0995574287564276,1.351987818698209,3.1733331252242687,0.009978068465248083,-1.3460657136890555
1.1519173063162573,1.3269770756950976,2.9585666789575815,0.01033605205001346,-1.3206219548721694
1.2042771838760873,1.2983623241209823,2.7357246386204186,0.010666446255528868,-1.2915909648378163
1.2566370614359172,1.2662265631489522,2.505429067077775,0.010968258412511131,-1.259056984425888
1.308996938995747,1.2306628882663455,2.2683277908349706,0.011240591755952201,-1.2231142851751924
1.361356816555577,1.1917740671580372,2.025095424060687,0.011482643884144057,-1.1838667454753673
1.413716694115407,1.149671969318565,1.7764352210343834,0.011693706046743663,-1.141427279179777
1.4660765716752366,1.1044768495779531,1.523080277038716,0.011873162939033205,-1.0959171171876538
1.5184364492350666,1.0563165282339737,1.2657888938517132,0.012020492785444665,-1.047464985033231
1.5707963267948966,1.0053255607854819,1.005325560785482,0.012135267563939078,-0.9962062699038993
1.6231562043547263,0.9516445209794555,0.7424290858926971,0.012217153268180781,-0.9422823012742132
1.6755160819145563,0.8954195031864645,0.47779423316937053,0.012265910135150548,-0.8858398515608733
1.7278759594743862,0.8368018804210486,0.21208688247067325,0.012281392787128101,-0.8270308932751836
1.780235837034216,0.7759482661058826,-0.05402823456938017,0.012263550252123515,-0.7660125606520767
1.832595714594046,0.7130205686172473,-0.3198728789567978,0.01221242583795518,-0.7029472044851438
1.8849555921538759,0.6481860223017415,-0.5847547140933068,0.0121281568436486,-0.638002423524998
1.9373154697137056,0.5816171152328992,-0.8479723219146118,0.01201097409861306,-0.5713509924799848
1.9896753472735356,0.5134913827557811,-1.1088207815353537,0.01186120132582515,-0.5031706555782233
2.0420352248333655,0.4439910735803244,-1.3665963677566049,0.011679254330536529,-0.43364379247052887
2.0943951023931953,0.3733027143115853,-1.620600322494158,0.01146564002128821,-0.3629569824332319
2.146754979953025,0.30161660243946853,-1.8701419488339552,0.011220955275709658,-0.2913004969710773
2.199114857512855,0.22912625381902021,-2.114541254195352,0.010945885670230492,-0.21886774691024677
2.251474735072685,0.15602782404489987,-2.353131295997173,0.010641204101101934,-0.14585470341593265
2.3038346126325147,0.08251951685844547,-2.58526032437897,0.010307769334939806,-0.07245930607408099
2.356194490192345,0.008800987921083935,-2.810293778023095,0.00994652454171387,0.001119133656866684
2.4085543677521746,-0.06492725097490729,-3.027616165542996,0.009558495883769568,0.07448574685867686
2.4609142453120043,-0.1384644242156528,-3.236632850758474,0.00914479126427354,0.14760921547992634
2.5132741228718345,-0.21161007931798942,-3.436771751714359,0.008706599382524605,0.22031667870051402
2.5656340004316642,-0.28416466726110035,-3.627484958211987,0.008245189310201857,0.2924098565713022
2.617993877991494,-0.3559301152163769,-3.808250269551136,0.00776191090578077,0.3636920261221577
2.670353755551324,-0.42671039079191364,-3.978572652325172,0.0072581965479860365,0.4339685873398997
2.722713633111154,-0.49631205691002817,-4.13798561700378,0.006735564935551476,0.5030476218455796
2.7750735106709836,-0.5645448163951672,-4.2860525113956465,0.006195628146697661,0.5707404445418648
2.827433388230814,-0.631222045294772,-4.422367728738428,0.005640103922612074,0.636862149217384
2.8797932657906435,-0.6961613139025338,-4.546557828011566,0.00507083651853856,0.7012321504210723
2.9321531433504733,-0.7591848944091822,-4.658282564043704,0.004489832033402384,0.7636747264425846
2.9845130209103035,-0.8201202540733689,-4.757235825049387,0.003899319127366457,0.8240195732007353
3.036872898470133,-0.878800532784711,-4.8431464753524756,0.0033018562871887733,0.8821023890718999
3.089232776029963,-0.935065003881892,-4.91577910121833,0.002700529136703764,0.9377655330185957
3.141592653589793,-0.9887595170894748,-4.974934657911061,0.0020993336223635636,0.9908588507118384
3.193952531149623,-1.039736922446336,-5.020451016307388,0.001503974878829843,1.041240897325166
3.2463124087094526,-1.087857474114678,-5.052203407628464,0.0009236954512117036,1.0887811695658898
3.2986722862692828,-1.132989212979928,-5.070104765090182,0.00037601671751254586,1.1333652296974406
3.3510321638291125,-1.1750083269769036,-5.074105961516841,3.4678412301866014e-19,1.1750083269769036
3.4033920413889422,-1.2137994881048813,-5.064195942208191,7.014820891504674e-19,1.2137994881048813
3.4557519189487724,-1.2492561651220282,-5.040401752591612,5.20974430255103e-19,1.2492561651220282
3.508111796508602,-1.2812809109365084,-5.002788460424368,6.739110357319362e-19,1.2812809109365084
3.560471674068432,-1.309785623735669,-4.951458972528933,6.320345379732047e-19,1.309785623735669
3.612831551628262,-1.3346917809144723,-4.886553746238782,7.856949595687864e-19,1.3346917809144723
3.665191429188092,-1.3559306448781736,-4.80825039589049,8.487919829366528e-19,1.3559306448781736
3.7175513067479216,-1.3734434398011601,-4.716763194802542,1.1191703751033425e-18,1.3734434398011601
3.7699111843077517,-1.3871814984237718,-4.612342473205184,9.403050037165055e-19,1.3871814984237718
3.8222710618675815,-1.3971063779641955,-4.495273912487692,1.0835976079123816e-18,1.3971063779641955
3.874630939427411,-1.403189944219518,-4.365877735844887,1.1379336299460384e-18,1.403189944219518
3.9269908169872414,-1.4054144229430447,-4.224507794830215,1.2757323818741134e-18,1.4054144229430447
3.979350694547071,-1.4037724176417707,-4.071550550289939,1.2502031697980395e-18,1.4037724176417707
4.031710572106901,-1.3982668930891002,-3.907423944383233,2.010250168330731e-18,1.3982668930891002
4.084070449666731,-1.388911124181206,-3.732576157418245,1.79349074097049e-18,1.388911124181206
4.13643032722656,-1.3757286104251125,-3.5474842382587957,1.385873740241654e-18,1.3757286104251125
4.1887902047863905,-1.3587529575567598,-3.3526525887201837,1.285921623269845e-18,1.3587529575567598
4.241150082346221,-1.3380277298680348,-3.1486112683674436,1.5986926122905444e-18,1.3380277298680348
4.29350995990605,-1.3136062801710016,-2.9359140626656823,1.454355151471458e-18,1.3136062801710016
4.34586983746588,-1.285551569306237,-2.7151362188880825,1.9586832265885076e-18,1.285551569306237
4.39822971502571,-1.2539359937158496,-2.486871694720674,2.911689381803632e-18,1.2539359937158496
4.45058959258554,-1.2188412468517777,-2.251729688930923,1.7722186581841697e-18,1.2188412468517777
4.50294947014537,-1.1803582451003423,-2.0103301927249904,1.9305446593766437e-18,1.1803582451003423
4.5553093477052,-1.1385871457394534,-1.7632985797939658,1.907930272776009e-18,1.1385871457394534
4.607669225265029,-1.0936374656253858,-1.5112606311704504,1.769306026623627e-18,1.0936374656253858
4.6600291028248595,-1.0456282702022206,-1.254843062885754,1.5180107938735563e-18,1.0456282702022206
4.71238898038469,-0.994688350136289,-0.9946883501362896,2.480722040871179e-18,0.994688350136289
4.764748857944519,-0.9409562622450821,-0.7314832528080664,5.362568608585754e-05,0.941009887931168
4.817108735504349,-0.8845801156275083,-0.46597457700090955,0.00011082442860478679,0.884690940056113
4.869468613064179,-0.8257170471088484,-0.19895022177327454,0.00017095965405765904,0.8258880067629061
4.921828490624009,-0.7645324255028301,0.06879349033104044,0.00023351166415778242,0.7647659371669878
4.974188368183839,-0.7011988987494364,0.3364710059376589,0.0002980371512468992,0.7014969359006833
5.026548245743669,-0.6358954151988447,0.6033121096469033,0.0003641459819798657,0.6362595611808246
5.078908123303498,-0.5688063155605171,0.8685607619367797,0.00043148709280177065,0.5692378026533188
5.1312680008633285,-0.5001205378679701,1.13147341503169,0.0004997396031332207,0.5006202774711033
5.183627878423159,-0.4300309336107824,1.3913182389407288,0.0005686070804845192,0.4305995406912669
5.235987755982988,-0.3587336700881594,1.6473752676110247,0.0006378138021594166,0.3593714838903188
5.288347633542818,-0.2864276887352269,1.8989371883045612,0.000707102344656784,0.28713479107988366
5.340707511102648,-0.2133141936105247,2.1453105295586905,0.00077623210446987,0.21409042571499456
5.393067388662478,-0.13959615179985457,2.385817080801678,0.0008449785139285173,0.14044113031378308
5.445427266222308,-0.06547779460160837,2.619795437620942,0.0009131328150814833,0.06639092741668985
5.497787143782138,0.008835886259115685,2.8466026061512895,0.0009805023215973408,-0.007881891596295692
5.550147021341967,0.08313964954451157,3.0656156241522567,0.001046911149655933,-0.08234215734348917
5.602506898901797,0.1572285225104722,3.2762331708533536,0.0011122014445003442,-0.15658800663350328
5.654866776461628,0.23089832474053568,3.477877146432538,0.001176235178238838,-0.23041478453651845
5.707226654021457,0.303946195920688,3.6699942074035867,0.0012388966554634116,-0.30361913785298666
5.759586531581287,0.37617112540516917,3.8520572475996144,0.0013000959479125885,-0.3759995428334721
5.811946409141117,0.4473744813598595,4.023566816657101,0.0013597736055769695,-0.4473568311983621
5.864306286700947,0.5173605373099216,4.184052469398469,0.0014179071890970717,-0.5174947117327543
5.916666164260777,0.5859369940071171,4.333074040561185,0.0014745204894150124,-0.5862202844997234
5.969026041820607,0.6529154946398068,4.4702228400955395,0.001529696841333869,-0.6533445442823924
6.021385919380436,0.7181121315199082,4.595122764854692,0.0015835988801496368,-0.7186828690343183
6.073745796940266,0.7813479424889963,4.707431322992255,0.0016364987943087773,-0.7820554875221545
6.126105674500097,0.8424493953879849,4.80684056780505,0.0016888263294909602,-0.8432879172446579
6.178465552059926,0.9012488590312598,4.893077938137072,0.0017412480760863429,-0.9022113575322673
6.230825429619756,0.9575850592176238,4.96590700281125,0.0017948044267036606,-0.958663009968573
