theta,z_plus,lambda_top,edge_margin
0.0,0.0018969967249796384,0.0006753550288398806,-0.0012595816306393507
0.03490658503988659,0.0019100891393617142,0.0009502131608478136,-0.000998077761301135
0.06981317007977318,0.001922354774538736,0.0016071277551385804,-0.0003536741148909301
0.10471975511965978,0.0019337784649452255,0.002390330966662877,0.000417876932418747
0.13962634015954636,0.0019443458592731532,0.003210985086553369,0.0012277523100947528
0.17453292519943295,0.001954043434788445,0.00404411315204521,0.002050988848560996
0.20943951023931956,0.0019628585091343593,0.004880368295143564,0.002878252615826517
0.24434609527920614,0.0019707792495287585,0.005715194929195399,0.0037050000946760656
0.2792526803190927,0.001977794679237089,0.006545840656324502,0.004528490083502671
0.3141592653589793,0.0019838946811742792,0.007370347287888903,0.0053467747130911385
0.3490658503988659,0.001989069998455881,0.008187151783509601,0.0061583003850846025
0.3839724354387525,0.0019933122316800177,0.008994908395285474,0.006961729918971856
0.4188790204786391,0.001996613832675589,0.009792401856149716,0.007755855746820616
0.4537856055185257,0.0019989680943964796,0.01057850195344601,0.008539554497161601
0.4886921905584123,0.0020003691365735976,0.011352138471400843,0.009311761952095774
0.5235987755982988,0.0020008118866529454,0.01211228682972132,0.010071458705335315
0.5585053606381855,0.002000292055444,0.012857959647877275,0.010817661751324394
0.5934119456780721,0.0019988061067726004,0.013588201742159911,0.01154941951325186
0.6283185307179586,0.00199635122026817,0.01430208718707135,0.012265808942397816
0.6632251157578453,0.0019929252462059046,0.014998717657316911,0.012965933906186888
0.6981317007977318,0.001988526651055869,0.015677221584634957,0.01364892440055797
0.7330382858376184,0.0019831544520429113,0.01633675384347834,0.014313936302394572
0.767944870877505,0.0019768081385661703,0.016976495784758926,0.014960151483421433
0.8028514559173916,0.001969487577725914,0.017595655500325068,0.015586778171044636
0.8377580409572782,0.0019611929004031766,0.018193468240177216,0.016193051481765974
0.8726646259971648,0.0019519243632544604,0.018769196929416344,0.016778234078896795
0.9075712110370514,0.001941682180503031,0.01932213274815084,0.017341616924037746
0.9424777960769379,0.0019304663173566614,0.01985159574834785,0.017882520104644053
0.9773843811168246,0.0019182762339967374,0.02035693548888436,0.018400293730207688
1.0122909661567112,0.0019051105649610653,0.02083753167504813,0.018894318898787843
1.0471975511965976,0.0018909667127457355,0.021292794792232735,0.019364008745232083
1.0821041362364843,0.00187584032555436,0.021722166726047216,0.01980880959398177
1.117010721276371,0.0018597246156307312,0.022125121362849852,0.020228202254906506
1.1519173063162575,0.0018426094536409575,0.022501165166021027,0.02062170352330725
1.1868238913561442,0.001824480141062456,0.022849837724261676,0.02098886798037797
1.2217304763960306,0.0018053157072752631,0.023170712268935297,0.02132929024751453
1.2566370614359172,0.0017850864835492449,0.023463396158032078,0.021642607944811848
1.2915436464758039,0.0017637505375648177,0.023727531324768784,0.02192850577645267
1.3264502315156905,0.001741248236191375,0.02396279468918483,0.022186721488269626
1.361356816555577,0.0017174935760195303,0.02416889853137084,0.02241705508383092
1.3962634015954636,0.0016923595783098144,0.024345590825196394,0.022619384055320383
1.4311699866353502,0.0016656519038023808,0.02449265553159278,0.022793690589714352
1.4660765716752369,0.0016370565877991707,0.024609912850611843,0.022940115131056687
1.5009831567151235,0.0016060224136638104,0.024697219431621772,0.023059076569684686
1.53588974175501,0.0015714406116752843,0.02475446854113045,0.02315159911722166
1.5707963267948966,0.0015304463093992688,0.024781590187838563,0.02322053495225131
1.6057029118347832,0.001471459839699573,0.024778551204634257,0.023277662168140693
1.6406094968746698,0.0013832008657723382,0.024745355287339905,0.02333449040425212
1.6755160819145565,0.0012995326824634527,0.024682042990119252,0.02335651965400653
1.710422666954443,0.001229765413215773,0.024588691677547847,0.02333433095606776
1.7453292519943295,0.0011715842971566457,0.024465415433445662,0.023270399450345883
1.7802358370342162,0.0011220785591076175,0.024312364926665553,0.023167844796375785
1.8151424220741028,0.0010790179635683694,0.024129727234133293,0.023029128911293557
1.8500490071139892,0.0010408008593376697,0.023917725621539328,0.022856108745014904
1.8849555921538759,0.0010062778147524557,0.023676619282196443,0.02265021591114894
1.9198621771937625,0.0009746117094536126,0.02340670303470313,0.022412599091060446
1.9547687622336491,0.0009451817631080054,0.023108306980191534,0.022144221581821368
1.9896753472735358,0.0009175193845072008,0.022781796120100135,0.02184592634790279
2.0245819323134224,0.0008912650617567136,0.022427569935597934,0.021518479572606088
2.059488517353309,0.000866138946924751,0.02204606193001059,0.021162600204147345
2.0943951023931953,0.0008419204159515192,0.021637739135869728,0.02077898031159918
2.129301687433082,0.0008184335990954961,0.021203101588543084,0.020368299317465678
2.1642082724729685,0.0007955369528354806,0.020742681768826828,0.01993123407693464
2.199114857512855,0.0007731156163401253,0.0202570440174248,0.019468466088757873
2.234021442552742,0.0007510757195652976,0.01974678392494794,0.018980686690991337
2.2689280275926285,0.0007293400812879162,0.019212527702005985,0.01846860081909231
2.303834612632515,0.0007078449117571384,0.01865493153522481,0.017932929725232527
2.3387411976724017,0.0006865372512114556,0.01807468093674402,0.017374412940508333
2.3736477827122884,0.0006653729537620455,0.017472490097134488,0.016793809684297202
2.4085543677521746,0.0006443150794213767,0.016849101255027532,0.01619189987401773
2.443460952792061,0.0006233325937618831,0.016205284101536342,0.015569484855899221
2.478367537831948,0.0006023993001760329,0.015541835244502908,0.014927387958323355
2.5132741228718345,0.0005814929474125887,0.014859577767874301,0.01426645496151346
2.548180707911721,0.0005605944671786649,0.014159360936969258,0.01358755458044702
2.5830872929516078,0.0005396873044722549,0.013442060124134087,0.012891579073572388
2.6179938779914944,0.0005187568076627955,0.012708577066549591,0.01217944512273354
2.652900463031381,0.0004977896463277628,0.011959840627880605,0.011452095188626287
2.6878070480712677,0.00047677322201396087,0.011196808334466186,0.010710499648011946
2.722713633111154,0.0004556950290570416,0.010420469125292757,0.009955660195654574
2.7576202181510405,0.0004345419064572265,0.00963184805176313,0.009188615307176759
2.792526803190927,0.0004132990917217766,0.008832014206244083,0.008410449132687872
2.827433388230814,0.00039194893158784445,0.008022094196346037,0.007622306286126436
2.8623399732707004,0.0003704689971116563,0.007203295569471899,0.006825417192418009
2.897246558310587,0.0003488291337974243,0.006376949047628864,0.0060211433311554916
2.9321531433504737,0.00032698650878074597,0.005544588634695815,0.005211062395739454
2.9670597283903604,0.0003048766094205732,0.004708114079181041,0.004397139937572057
3.001966313430247,0.0002823952027685647,0.0038701503798493986,0.0035821072730254627
3.036872898470133,0.0002593570588289478,0.003034939011557869,0.0027703948115523425
3.07177948351002,0.00023538058957236214,0.002210898350717993,0.0019708101493541835
3.1066860685499065,0.0002094245369885146,0.0014194089057478015,0.0012057958780195166
3.141592653589793,0.00033935456793581615,0.0007276124933853132,0.0003814708340907807
3.1764992386296798,0.00016755348610049444,0.0002895703507638552,0.00011866579494135087
3.2114058236695664,0.00014887067943146582,0.0001192854014408076,-3.256269157928752e-05
3.246312408709453,0.00013181909636051395,5.999270996443836e-05,-7.446276832328586e-05
3.2812189937493397,0.00011622253411901934,2.6089543348733387e-05,-9.245744145266635e-05
3.3161255787892263,0.00010193005253734849,5.4684872445520335e-06,-9.850016634354343e-05
3.351032163829113,8.881174907100683e-05,-4.4310602660875755e-09,-9.059241511269306e-05
3.385938748868999,7.675536795261837e-05,-1.30974202036505e-08,-7.830357273187439e-05
3.420845333908886,6.566356022903069e-05,-2.0388736367401222e-08,-6.69972201699787e-05
3.4557519189487724,5.5451656554725797e-05,-2.690149042821814e-08,-5.6587591176248524e-05
3.490658503988659,4.6045847726960275e-05,-3.2886105727543887e-08,-4.699965078722703e-05
3.5255650890285457,3.7381692540979594e-05,-3.853318930390927e-08,-3.8167859581103097e-05
3.5604716740684323,2.9402891024834343e-05,-4.393503019373634e-08,-3.0034883875524767e-05
3.595378259108319,2.206027517652129e-05,-4.9138927926944915e-08,-2.2550619607978663e-05
3.6302848441482056,1.5310980179757266e-05,-5.417148938889259e-08,-1.5671371272741303e-05
3.6651914291880923,9.117767595735921e-06,-5.9048464501839125e-08,-9.359171412152479e-06
3.7000980142279785,3.448478867501544e-06,-6.377929691324618e-08,-3.5812277417648215e-06
3.735004599267865,-1.7243968708189805e-06,-6.836949751100092e-08,1.6560273733079797e-06
3.7699111843077517,-6.424051816660909e-06,-7.28219984068376e-08,6.351229818254072e-06
3.8048177693476384,-1.0669592061784143e-05,-7.713797910277126e-08,1.0592454082681373e-05
3.839724354387525,-1.4476176096041135e-05,-8.131739761391365e-08,1.4394858698427222e-05
3.8746309394274117,-1.785505712980692e-05,-8.535934649015714e-08,1.7769697783316763e-05
3.9095375244672983,-2.0813521978639852e-05,-8.926229981247977e-08,2.072425967882737e-05
3.944444109507185,-2.3354712999647666e-05,-9.302428957220193e-08,2.3261688710075463e-05
3.9793506945470716,-2.5477311489501764e-05,-9.664303475947664e-08,2.5380668454742287e-05
4.014257279586958,-2.717505001985901e-05,-1.0011603785788395e-07,2.7074933982001126e-05
4.049163864626845,-2.8436005837791906e-05,-1.0344065829328857e-07,2.833256517949862e-05
4.084070449666731,-2.924160526266297e-05,-1.0661416920718507e-07,2.9134991093455785e-05
4.118977034706618,-2.9565236066498132e-05,-1.0963380189606845e-07,2.9455602264602063e-05
4.153883619746504,-2.9370314723157964e-05,-1.1249678093619798e-07,2.9257817942221767e-05
4.1887902047863905,-2.8607577344088406e-05,-1.1520035212206501e-07,2.8492376991966342e-05
4.223696789826278,-2.7211238346561377e-05,-1.1774180473378086e-07,2.7093496541827596e-05
4.258603374866164,-2.5093455938737606e-05,-1.2011848922164967e-07,2.4973337449515955e-05
4.293509959906051,-2.213619647269677e-05,-1.2232783108504524e-07,2.2013868641611725e-05
4.328416544945937,-1.8178981855959246e-05,-1.2436734149051425e-07,1.8054614514468733e-05
4.363323129985824,-1.2999897660569045e-05,-1.2623462499908026e-07,1.2873663035569965e-05
4.39822971502571,-6.285133949519292e-06,-1.279273846291318e-07,6.15720656489016e-06
4.4331363000655974,2.4218880509157342e-06,-1.2944342435448517e-07,-2.5997692362885344e-06
4.468042885105484,1.3809735071479549e-05,-1.3078064903201015e-07,-1.421671042194115e-05
4.50294947014537,2.8965049804474016e-05,-1.319370616300946e-07,-2.9676287862193594e-05
4.537856055185257,4.970568098692547e-05,-1.3291075751025411e-07,-5.083270536417423e-05
4.572762640225143,7.93162693944311e-05,-1.336999153738435e-07,-8.103629469769358e-05
4.60766922526503,0.00012439646629299083,-1.3430278429597369e-07,-0.00012701869840314663
4.642575810304916,0.00020044692503021135,-1.3471766604903705e-07,-0.0002045905811968646
4.6774823953448035,0.0003544957413340567,-1.3494289159582213e-07,-0.00036172059905233367
4.71238898038469,0.0007355609843156919,-1.3497679021192228e-07,-0.0007504071807922177
4.747295565424577,0.0007877619146783668,-1.3481764907643232e-07,-0.0008036519706210106
4.782202150464463,0.0008269356477679432,-1.3446366030003986e-07,-0.0008436088243836022
4.817108735504349,0.0008620005117120083,-1.3391285104643086e-07,-0.0008793744347972949
4.852015320544236,0.0008949625590396325,-1.3316299043143798e-07,-0.0009129949732108566
4.886921905584122,0.0009266592670875301,-1.3221146381649598e-07,-0.0009453246638930972
4.9218284906240095,0.0009575250108395877,-1.310551002084417e-07,-0.000976806566156588
4.956735075663896,0.0009878120527263537,-1.2968993040325177e-07,-0.001007697983711284
4.991641660703783,0.0010176766165564213,-1.2811083970684852e-07,-0.0010381582597272566
5.026548245743669,0.001047218815904451,-1.2631105447969952e-07,-0.0010682895032770197
5.061454830783556,0.00107650348388947,-1.2428135577062697e-07,-0.0010981578349230302
5.096361415823442,0.0011055720072412028,-1.2200882215137096e-07,-0.0011278054562081782
5.1312680008633285,0.0011344495031695156,-1.1947470999602375e-07,-0.001157257967942902
5.1661745859032155,0.001163149403722034,-1.1665062953167469e-07,-0.0011865290424260063
5.201081170943102,0.0011916765113520029,-1.1349100815938861e-07,-0.0012156235325872023
5.235987755982989,0.0012200291095815355,-1.0991632768672648e-07,-0.0012445396081008531
5.270894341022875,0.0012482004663362596,-1.0576870142481954e-07,-0.0012732702443644095
5.305800926062762,0.0012761799337723,-1.0065648776128028e-07,-0.0013018041889355074
5.340707511102648,0.001303953772271475,-9.306302336855977e-08,-0.0013301259107402728
5.375614096142535,0.001331505781153534,-7.21956172876333e-08,-0.0013582080923938923
5.410520681182422,0.0013588177909653872,7.612133730835896e-09,-0.001385986534650964
5.445427266222308,0.001385870054695986,4.802769470433901e-07,-0.0014131071788428624
5.480333851262195,0.0014126415638914813,1.6908125208543573e-06,-0.0014392035826484566
5.515240436302081,0.001439110308080796,3.983870655528402e-06,-0.0014639086435868837
5.550147021341968,0.0014652534907832377,7.68083623214381e-06,-0.0014868777243667588
5.585053606381854,0.0014910477118121003,1.3056022532143245e-05,-0.001507812643516199
5.619960191421741,0.001516469123082395,2.040653463287269e-05,-0.0015263919709111702
5.654866776461628,0.0015414935633378656,3.003401427009787e-05,-0.001542289420334525
5.689773361501515,0.0015660966759112114,4.2232089233562716e-05,-0.001555186520195873
5.724679946541401,0.001590254012674452,5.72795680481885e-05,-0.0015647795248797524
5.759586531581287,0.001613941126624092,7.54151814614174e-05,-0.0015708047676951564
5.794493116621174,0.0016371336550095622,9.679938800344752e-05,-0.001573076940106306
5.82939970166106,0.0016598073945055733,0.00012148241319612287,-0.0015715211291995618
5.8643062867009474,0.0016819383696157892,0.00014939300976694986,-0.001566184127241155
5.899212871740834,0.0017035028952523583,0.00018035110163022874,-0.0015572218515271768
5.934119456780721,0.0017244776342459594,0.00021409753833914565,-0.001544869648591733
5.969026041820607,0.001744839650391236,0.00025033008846768646,-0.0015294063549313743
6.003932626860494,0.0017645664575133976,0.00028873671777039504,-0.0015111210688932707
6.03883921190038,0.0017836360649462711,0.00032902214750437134,-0.0014902866387408252
6.073745796940266,0.0018020270197348688,0.0003709287242379193,-0.001467138835891647
6.1086523819801535,0.0018197184458125365,0.0004142572121570517,-0.0014418556025717357
6.14355896702004,0.001836690080350837,0.00045890042238174627,-0.0014145234595761076
6.178465552059927,0.0018529223074370744,0.0005049253828890565,-0.0013850553706967594
6.213372137099813,0.0018683961891978638,0.0005528399880846628,-0.0013529241248971583
6.2482787221397,0.001883093494455884,0.0006048129678802461,-0.0013159423964647554
