theta,z_plus,lambda_top,edge_margin
0.0,0.0019324991963199183,0.0004666121444802052,-0.0015045370357661117
0.03490658503988659,0.00194731952630247,0.0009279467410359744,-0.001058319175792545
0.06981317007977318,0.0019612424873811365,0.001801485044144117,-0.00019898229298464208
0.10471975511965978,0.001974250926263578,0.0028588403222566993,0.0008451043774678497
0.13962634015954636,0.001986328611687191,0.003970379365899682,0.001944324181978747
0.17453292519943295,0.001997460251254407,0.005099002165480267,0.0030615927092007716
0.20943951023931956,0.002007631505709612,0.006231714229679913,0.004183930093856109
0.24434609527920614,0.0020168290005662696,0.007362441642753326,0.005305276062175731
0.2792526803190927,0.00202504033496917,0.00848758114892291,0.006422040007254356
0.3141592653589793,0.002032254087649877,0.009604577684824301,0.007531678515421426
0.3490658503988659,0.002038459819802557,0.010711383917745662,0.008632154901547054
0.3839724354387525,0.002043648074670964,0.011806226460493098,0.009721705424328715
0.4188790204786391,0.002047810373594027,0.012887494375513892,0.010798727794447984
0.4537856055185257,0.0020509392082051175,0.013953681927171037,0.011861723934801817
0.4886921905584123,0.0020530280284162417,0.015003357522839707,0.01290926893385514
0.5235987755982988,0.0020540712257397626,0.016035146192331123,0.013939993542076565
0.5585053606381855,0.002054064111402611,0.017047719470568032,0.01495257407693737
0.5934119456780721,0.0020530028885856347,0.018039789521797214,0.015945726575439866
0.6283185307179586,0.0020508846179663736,0.019010105789955104,0.016918203479629402
0.6632251157578453,0.0020477071755470653,0.01995745320249137,0.017868791883433363
0.6981317007977318,0.002043469201497562,0.020880651354493476,0.018796312768965963
0.7330382858376184,0.0020381700384164434,0.02177855432376339,0.019699620884578616
0.767944870877505,0.002031809656987181,0.02265005089739259,0.020577605047265662
0.8028514559173916,0.002024388566443634,0.023494065068179956,0.021429188730407448
0.8377580409572782,0.0020159077065090357,0.024309556707154657,0.022253330846515443
0.8726646259971648,0.002006368316461227,0.025095522348736004,0.023049026665945552
0.9075712110370514,0.0019957717755962443,0.025850996044624538,0.023815308833516367
0.9424777960769379,0.0019841194074525044,0.026575050255428515,0.02455124845982696
0.9773843811168246,0.0019714122374772866,0.027266796757716212,0.02525595627548938
1.0122909661567112,0.0019576506899945238,0.02792538755013503,0.025928583846340617
1.0471975511965976,0.0019428342047852212,0.02855001574638302,0.026568324857502094
1.0821041362364843,0.0019269607453829916,0.029139916445755205,0.027174416485464554
1.117010721276371,0.001910026158776012,0.0296943675740982,0.027746140892146668
1.1519173063162575,0.001892023326983323,0.03021269068955025,0.02828282689602726
1.1868238913561442,0.0018729410203776142,0.030694251748588114,0.028783851907802947
1.2217304763960306,0.0018527623124019157,0.03113846182876675,0.029248644270116794
1.2566370614359172,0.0018314623299067415,0.03154477780519867,0.02967668622869379
1.2915436464758039,0.0018090049619627312,0.03191270297833605,0.030067517917134065
1.3264502315156905,0.0017853378685223225,0.03224178765102885,0.03042074302513608
1.361356816555577,0.0017603845759582087,0.032531629653163335,0.030736037385685963
1.3962634015954636,0.0017340312760600995,0.03278187481245837,0.031013162910877065
1.4311699866353502,0.0017061032506628356,0.03299221737022856,0.031251992054552466
1.4660765716752369,0.0016763189164654118,0.0331624003411195,0.031452555046324784
1.5009831567151235,0.0016441888511924416,0.033292215815995035,0.03161514318777874
1.53588974175501,0.0016087516178165348,0.03338150520731227,0.0317405785571394
1.5707963267948966,0.00156766208770347,0.03343015943646122,0.03183114410700368
1.6057029118347832,0.0015127000723105673,0.03343811906267824,0.03189516498892146
1.6406094968746698,0.0014331406653324337,0.03340537435326837,0.03194357087462928
1.6755160819145565,0.0013536739223473475,0.03333196529499183,0.03195121789419753
1.710422666954443,0.001285527959698604,0.03321798154658756,0.031906743027694986
1.7453292519943295,0.001227744036090034,0.03306356233252582,0.03181126341571398
1.7802358370342162,0.0011779931783411715,0.03286889627819943,0.03166734323629144
1.8151424220741028,0.0011343183504669637,0.0326342211868864,0.031477216469410096
1.8500490071139892,0.0010952580558092652,0.03235982375894475,0.0312426605420193
1.8849555921538759,0.0010597400391904274,0.032046039253836006,0.03096510441386177
1.9198621771937625,0.0010269721852557885,0.03169325109572166,0.030645739466760753
1.9547687622336491,0.0009963612589910565,0.0313018904235392,0.030285601939368325
1.9896753472735358,0.0009674562696184007,0.030872435586649365,0.029885630191638597
2.0245819323134224,0.000939909416061846,0.03040541158735522,0.02944670398297214
2.059488517353309,0.0009134489611874907,0.02990138947184412,0.02896967153143288
2.0943951023931953,0.0008878601337866454,0.029360985671398658,0.02845536833493628
2.129301687433082,0.0008629714706110614,0.02878486129608772,0.027904630396064434
2.1642082724729685,0.0008386448919187862,0.028173721383601313,0.02731830359384415
2.199114857512855,0.0008147683771788067,0.027528314106468374,0.02669725036174599
2.234021442552742,0.0007912504789721098,0.026849429941641134,0.026042354453089583
2.2689280275926285,0.0007680161554333492,0.026137900807406862,0.025354524328864845
2.303834612632515,0.0007450035614958105,0.02539459917389482,0.024634695541169094
2.3387411976724017,0.0007221615461519459,0.024620437155218736,0.02388383237814375
2.3736477827122884,0.0006994476754351303,0.02381636559373791,0.023102928964794076
2.4085543677521746,0.0006768266505909158,0.02298337315034113,0.022293009966738397
2.443460952792061,0.0006542690254346001,0.022122485419522823,0.021455131013579532
2.478367537831948,0.0006317501510234261,0.0212347640950556,0.020590378941011706
2.5132741228718345,0.0006092492926426726,0.020321306222416527,0.019699871943921
2.548180707911721,0.000586748875735732,0.019383243589642322,0.018784759736391876
2.5830872929516078,0.0005642338250510353,0.018421742332019583,0.017846223830467526
2.6179938779914944,0.000541690965606141,0.017438002863104,0.016885478078185735
2.652900463031381,0.0005191084552382247,0.016433260303925737,0.01590376967958275
2.6878070480712677,0.0004964752160947645,0.015408785679798552,0.014902380959381891
2.722713633111154,0.0004737803251548194,0.014365888319283239,0.013882632387625323
2.7576202181510405,0.00045101230906004615,0.013305920178780148,0.012845887623538901
2.792526803190927,0.0004281582607201962,0.012230283341103088,0.011793561915168489
2.827433388230814,0.0004052026431668971,0.011140442931821842,0.010727136235791607
2.8623399732707004,0.00038212554606718163,0.010037949681297,0.009648181624308475
2.897246558310587,0.0003588999578144954,0.008924480552173191,0.008558402595202406
2.9321531433504737,0.0003354871773323552,0.007801915340816954,0.007459718419937951
2.9670597283903604,0.00031182845028125363,0.006672490500871324,0.006354425481584445
3.001966313430247,0.00028782814476553686,0.005539134996511621,0.005245550288850773
3.036872898470133,0.0002633151049297278,0.004406289478631329,0.004137708071603007
3.07177948351002,0.0002379342093480582,0.003282222327518289,0.0030395294339832695
3.1066860685499065,0.00021070912334440755,0.002186977970035875,0.0019720546642245794
3.141592653589793,0.00034089309244682894,0.0011854359382072227,0.0008377249839114573
3.1764992386296798,0.00016465534485757825,0.0004789329664727797,0.0003109845147180499
3.2114058236695664,0.00014438655904469032,0.0001851594718747371,3.7885181649152975e-05
3.246312408709453,0.0001258907168562474,7.833413378879506e-05,-5.0074397404577286e-05
3.2812189937493397,0.0001089750356736599,3.0556799088787805e-05,-8.05977372983453e-05
3.3161255787892263,9.347446894890918e-05,6.983748624461813e-06,-8.836020970342555e-05
3.351032163829113,7.924704137142214e-05,-5.5943645386020855e-09,-8.08375765633892e-05
3.385938748868999,6.617010851527119e-05,-1.5343009418226902e-08,-6.750885369499484e-05
3.420845333908886,5.4137336845528094e-05,-2.3587657994557462e-08,-5.524367124043321e-05
3.4557519189487724,4.305625040295533e-05,-3.118315557061677e-08,-4.3948558566585054e-05
3.490658503988659,3.284622744852266e-05,-3.836659277337909e-08,-3.354151859026649e-05
3.5255650890285457,2.3436857752507738e-05,-4.524427546946119e-08,-2.3950839183027355e-05
3.5604716740684323,1.476659176819173e-05,-5.187299913754029e-08,-1.5113796602693105e-05
3.595378259108319,6.781628539045761e-06,-5.828594322176534e-08,-6.975547053048442e-06
3.6302848441482056,-5.649987956841302e-07,-6.450337830979738e-08,5.004954173743328e-07
3.6651914291880923,-7.314171629460046e-06,-7.053784869472593e-08,7.24363378076532e-06
3.7000980142279785,-1.3501292870408164e-05,-7.639696877890963e-08,1.3424895901629254e-05
3.735004599267865,-1.9156770322024255e-05,-8.208505768369009e-08,1.9074685264340566e-05
3.7699111843077517,-2.4306389235497614e-05,-8.760415532188863e-08,2.4218785080175726e-05
3.8048177693476384,-2.8992048244257276e-05,-9.29546855098376e-08,2.889909355874744e-05
3.839724354387525,-3.33512516697137e-05,-9.813590617746428e-08,3.325311576353624e-05
3.8746309394274117,-3.736090443267442e-05,-1.0314622519721227e-07,3.725775820747721e-05
3.9095375244672983,-4.0973924057726586e-05,-1.079834281125594e-07,4.0865940629614024e-05
3.944444109507185,-4.4149282157704184e-05,-1.1264484620404085e-07,4.403663731150014e-05
3.9793506945470716,-4.684977592238857e-05,-1.1712748299424869e-07,4.673264843939432e-05
4.014257279586958,-4.904054601247922e-05,-1.21428111058464e-07,4.8919117901420754e-05
4.049163864626845,-5.068801624259227e-05,-1.2554334711869331e-07,5.056247289547358e-05
4.084070449666731,-5.175907960045306e-05,-1.294697108942401e-07,5.1629609889558815e-05
4.118977034706618,-5.222043550834013e-05,-1.3320367153341456e-07,5.2087231836806715e-05
4.153883619746504,-5.203803456537424e-05,-1.36741684321159e-07,5.1901292881053086e-05
4.1887902047863905,-5.117663162626841e-05,-1.4008021957857374e-07,5.103655140668984e-05
4.223696789826278,-4.959950523882825e-05,-1.4321578510831708e-07,4.945628945371993e-05
4.258603374866164,-4.7268498727329856e-05,-1.461449431197893e-07,4.7122353784210065e-05
4.293509959906051,-4.414472897185142e-05,-1.488643222525703e-07,4.399586464959885e-05
4.328416544945937,-4.019041659603232e-05,-1.5137062504257434e-07,4.0039045970989745e-05
4.363323129985824,-3.5135982193199e-05,-1.5366063094997135e-07,3.498232156224903e-05
4.39822971502571,-2.853675288757529e-05,-1.5573119483376896e-07,2.838102169274152e-05
4.4331363000655974,-1.9938555379423543e-05,-1.5757924052667422e-07,1.978097613889687e-05
4.468042885105484,-8.656730486038998e-06,-1.592017488830706e-07,8.497528737155928e-06
4.50294947014537,6.388421259329296e-06,-1.6059573932892253e-07,-6.676785423844805e-06
4.537856055185257,2.700120284029767e-05,-1.6175824349388738e-07,-2.7702985140597513e-05
4.572762640225143,5.6436807535013305e-05,-1.6268626888300143e-07,-5.772822995459657e-05
4.60766922526503,0.00010122125251316181,-1.6337674966295637e-07,-0.000103409054313088
4.642575810304916,0.00017662986674240897,-1.6382648035460915e-07,-0.00018032629055761176
4.6774823953448035,0.0003287279181032973,-1.640320262876148e-07,-0.0003354665084916509
4.71238898038469,0.0006730120916236613,-1.639896017052936e-07,-0.0006866363230578398
4.747295565424577,0.0007240849362536199,-1.636949017050003e-07,-0.0007387303298803974
4.782202150464463,0.0007642237930086283,-1.631428665669298e-07,-0.0007796714117353678
4.817108735504349,0.0008006929570770137,-1.62327344174895e-07,-0.0008168691435627289
4.852015320544236,0.0008352865113225093,-1.6124059389581724e-07,-0.0008521534821428553
4.886921905584122,0.0008687690718372882,-1.5987253476217705e-07,-0.0008863043258087962
4.9218284906240095,0.0009015397159149238,-1.5820956387027428e-07,-0.0009197287197970926
4.956735075663896,0.0009338298571606562,-1.5623261676806267e-07,-0.0009526626869206374
4.991641660703783,0.0009657816394791624,-1.5391381287256262e-07,-0.0009852511860816181
5.026548245743669,0.0009974847009767518,-1.5121027437799327e-07,-0.0010175856052706649
5.061454830783556,0.0010289955003275973,-1.4805181749179792e-07,-0.001049723462151641
5.096361415823442,0.001060348359972234,-1.4431396884659955e-07,-0.0010816996411405252
5.1312680008633285,0.0010915621938669747,-1.3975134722770557e-07,-0.0011135331890915418
5.1661745859032155,0.0011226448212197718,-1.3380823541820233e-07,-0.0011452315258795856
5.201081170943102,0.0011535958511795373,-1.2500002395473115e-07,-0.0011767927682270827
5.235987755982989,0.0011844086815014326,-1.0880572016357134e-07,-0.0012082056608516247
5.270894341022875,0.0012150719262623024,-7.01543330501529e-08,-0.0012394435191205985
5.305800926062762,0.0012455704634255953,7.35543639510071e-08,-0.0012704083183301563
5.340707511102648,0.0012758862220722735,8.118927705911622e-07,-0.0013005920537431277
5.375614096142535,0.001305998786928144,2.529044086579974e-06,-0.001329589718580127
5.410520681182422,0.0013358858718712243,5.039570106627007e-06,-0.0013575640192020218
5.445427266222308,0.0013655236976589209,8.225927762870196e-06,-0.001384608243849229
5.480333851262195,0.0013948872984147222,1.2003299784828599e-05,-0.001410781744598188
5.515240436302081,0.001423950774286469,1.6311203237233473e-05,-0.0014361185865349648
5.550147021341968,0.0014526875028396983,2.111113387119236e-05,-0.0014606301190253
5.585053606381854,0.0014810703183884724,2.6380632088116218e-05,-0.0014843110926681257
5.619960191421741,0.0015090716660961007,3.210804707417052e-05,-0.001507145052343852
5.654866776461628,0.0015366637359807232,3.8289108679553637e-05,-0.001529107902020784
5.689773361501515,0.001563818580727746,4.4925031511772224e-05,-0.0015501699208305287
5.724679946541401,0.0015905082203035807,5.202170260852574e-05,-0.0015702966821011266
5.759586531581287,0.001616704735689279,5.958962474447518e-05,-0.0015894492056585895
5.794493116621174,0.0016423803535434887,6.764442884076657e-05,-0.0016075835317735918
5.82939970166106,0.0016675075232167466,7.620789229688847e-05,-0.001624649781384193
5.8643062867009474,0.001692058987241394,8.530952485258787e-05,-0.0016405906421336342
5.899212871740834,0.001716007846190493,9.498894883073645e-05,-0.0016553390542835664
5.934119456780721,0.0017393276186185478,0.00010529957737793304,-0.0016688145936129856
5.969026041820607,0.0017619922966543486,0.00011631463805295735,-0.001680917504534478
6.003932626860494,0.0017839763977029893,0.00012813778142478624,-0.001691518144232263
6.03883921190038,0.0018052550126232449,0.0001409233736941789,-0.001700436739181531
6.073745796940266,0.0018258038506730983,0.00015491903543236483,-0.0017074008922541954
6.1086523819801535,0.0018455992814562783,0.0001705641363880647,-0.0017119471306973391
6.14355896702004,0.0018646183740533787,0.0001887420325537561,-0.0017131687089806903
6.178465552059927,0.0018828389334800389,0.00021148296057124747,-0.0017090127515783922
6.213372137099813,0.0019002395345800766,0.000244119003443931,-0.001694125321827747
6.2482787221397,0.0019167995534317998,0.00030521278789752567,-0.0016499227566029102
