theta,z_plus,lambda_top,edge_margin
0.0,0.002034430163159124,0.0006626815840644893,-0.0014124371823578173
0.03490658503988659,0.0020491797013798586,0.0007886984829176695,-0.0013014648124897864
0.06981317007977318,0.0020630163681800723,0.0014991487242378351,-0.0006051279713058387
0.10471975511965978,0.00207592308644766,0.002459539129783521,0.0003420975816069076
0.13962634015954636,0.0020878836967889013,0.0034763583429875114,0.0013467169722628318
0.17453292519943295,0.0020988829739632116,0.004509408649354731,0.0023685480159122553
0.20943951023931956,0.0021089066406248247,0.005546107000847341,0.0033950222274100198
0.24434609527920614,0.0021179413782734208,0.006580877555119824,0.004420577349280934
0.2792526803190927,0.002125974835289681,0.007610486162954358,0.0054419918309588835
0.3141592653589793,0.002132995631902242,0.008632652879533576,0.006456997334993289
0.3490658503988659,0.002138993361898529,0.009645547817646628,0.007463774588510129
0.3839724354387525,0.002143958590851936,0.010647579598131628,0.008460741835462653
0.4188790204786391,0.0021478828505901836,0.011637296679198623,0.009446456171596635
0.4537856055185257,0.002150758629572165,0.012613337570828376,0.010419563768664769
0.4886921905584123,0.002152579358770424,0.013574404221782254,0.011378773275836421
0.5235987755982988,0.0021533393925700388,0.014519247214579204,0.012322841034157764
0.5585053606381855,0.0021530339840873883,0.015446657342520726,0.01325056267875159
0.5934119456780721,0.0021516592541779168,0.016355460807675595,0.01416076836841412
0.6283185307179586,0.0021492121532323723,0.01724451655735406,0.01505232016105704
0.6632251157578453,0.0021456904146450588,0.018112714925763128,0.015924110702825168
0.6981317007977318,0.002141092498560454,0.01895897709343692,0.016775062744905256
0.7330382858376184,0.0021354175241455847,0.01978225506922358,0.017604129194595083
0.767944870877505,0.0021286651881664053,0.020581532010371002,0.01841029351844127
0.8028514559173916,0.002120835667027135,0.02135582276218404,0.019192570381816362
0.8377580409572782,0.0021119294986053872,0.02210417453911632,0.019950006450538824
0.8726646259971648,0.002101947439101259,0.02282566769455273,0.020681681306669444
0.9075712110370514,0.002090890288595893,0.02351941654288027,0.02138670844851246
0.9424777960769379,0.002078758676906986,0.024184570208189538,0.02206423635774441
0.9773843811168246,0.002065552798367278,0.02482031348115471,0.022713449626820086
1.0122909661567112,0.0020512720799244983,0.025425867670561715,0.023333570149038727
1.0471975511965976,0.0020359147608186765,0.026000491439374655,0.023923858383339606
1.0821041362364843,0.002019477352991679,0.026543481617648725,0.02448361471759721
1.117010721276371,0.0020019539376027336,0.02705417398633498,0.025012180969980192
1.1519173063162575,0.00198333523164143,0.02753194402728891,0.02550894209101465
1.1868238913561442,0.0019636073245293743,0.02797620763573628,0.025973328164716317
1.2217304763960306,0.001942749928492913,0.02838642179215939,0.026404816865096617
1.2566370614359172,0.0019207338907976951,0.02876208519110989,0.02680293662249624
1.2915436464758039,0.0018975175458053881,0.029102738824882034,0.02716727092816054
1.3264502315156905,0.0018730411671864884,0.029407966520316596,0.027497464529786377
1.361356816555577,0.0018472181520132955,0.029677395427282788,0.027793232912229227
1.3962634015954636,0.0018199202329405677,0.029910696457612365,0.028054377820012986
1.4311699866353502,0.001790950915260211,0.030107584673453106,0.02828081473988769
1.4660765716752369,0.0017599932781985845,0.030267819624176844,0.028472626480414286
1.5009831567151235,0.0017264938936789867,0.030391205631122832,0.028630181859570267
1.53588974175501,0.0016893530042079753,0.030477592019590757,0.028754451955298622
1.5707963267948966,0.0016458119219709831,0.030526873297618898,0.028848145137208493
1.6057029118347832,0.0015855159681965713,0.03053898928119706,0.02892176299363656
1.6406094968746698,0.0014965630138491519,0.030513925165670454,0.02898743089154432
1.6755160819145565,0.001409888142545683,0.030451711543196702,0.029013625637800106
1.710422666954443,0.001336580735832178,0.030352424366218315,0.028989112015669494
1.7453292519943295,0.0012749315902400255,0.030216184857015764,0.02891575463497094
1.7802358370342162,0.0012221647592650243,0.03004315936350719,0.028796551309056864
1.8151424220741028,0.0011760575933900516,0.029833559161566256,0.028633980416308404
1.8500490071139892,0.0011349827934337177,0.029587640204237625,0.028429957754935235
1.8849555921538759,0.0010977595090031604,0.029305702818343438,0.028185988119160215
1.9198621771937625,0.0010635214895756738,0.028988091349098126,0.027903299429730938
1.9547687622336491,0.0010316230841650815,0.02863519375348097,0.027582938207632586
1.9896753472735358,0.0010015751223093972,0.028247441143267264,0.02722583451851168
2.0245819323134224,0.0009730012741212225,0.02782530727878627,0.02683284597918262
2.059488517353309,0.0009456080084517451,0.027369308014672418,0.026404787846051637
2.0943951023931953,0.0009191635795078513,0.026880000699108078,0.02594245384801007
2.129301687433082,0.0008934830747914382,0.026357983528338784,0.025446630792051516
2.1642082724729685,0.0008684175943348756,0.025803894858588916,0.024918108912367343
2.199114857512855,0.0008438462918176935,0.025218412477944173,0.024357689260290125
2.234021442552742,0.0008196704302761107,0.02460225284132942,0.02376618900244779
2.2689280275926285,0.000795808877799826,0.02395617027244258,0.023144445217086758
2.303834612632515,0.0007721946472271806,0.02328095613748211,0.022493317597310387
2.3387411976724017,0.0007487722025970163,0.022577437996820035,0.02181369035017108
2.3736477827122884,0.000725495335216153,0.021846478742581492,0.021106473500661017
2.4085543677521746,0.0007023254669609762,0.02108897573261087,0.020372603756310673
2.443460952792061,0.0006792302762904291,0.020305859934880356,0.019613045053064118
2.478367537831948,0.0006561825688173704,0.01949809510154904,0.01882878888135532
2.5132741228718345,0.0006331593326564785,0.018666676999441585,0.01802085448013198
2.548180707911721,0.0006101409313776524,0.017812632735017455,0.01719028898501225
2.5830872929516078,0.0005871103956241802,0.016937020229133105,0.016338167625596443
2.6179938779914944,0.0005640527790402366,0.016040927923749844,0.015465594089128802
2.652900463031381,0.000540954545255135,0.015125474845576897,0.014573701209416659
2.6878070480712677,0.0005178029498078364,0.014191811221797485,0.013663652212993493
2.722713633111154,0.0004945853726500524,0.013241119961327503,0.012736642881224449
2.7576202181510405,0.0004712885402303313,0.012274619521190215,0.011793905210155277
2.792526803190927,0.0004478975450673782,0.011293569050359225,0.0108367135543905
2.827433388230814,0.00042439451275978085,0.010299277406813545,0.009866395003798569
2.8623399732707004,0.0004007566550471222,0.00929311903771008,0.008884347249562016
2.897246558310587,0.00037695322260450907,0.008276562639623897,0.007892070352567298
2.9321531433504737,0.0003529403845609722,0.0072512250957998785,0.006891225903547687
2.9670597283903604,0.00032865191037736205,0.006218979250904604,0.005883754302319694
3.001966313430247,0.0003039804659439278,0.005182187488271376,0.00487212741300857
3.036872898470133,0.00027873474938048105,0.004144266329207749,0.0038599568848396585
3.07177948351002,0.00025251949773418523,0.0031112693413216687,0.0028536994536327996
3.1066860685499065,0.00022425279350638127,0.002097328334798077,0.0018685904854215682
3.141592653589793,0.00036321635172492466,0.0011487295899017401,0.000778248911142317
3.1764992386296798,0.00017599020586187746,0.00044089598164996917,0.0002613859716708542
3.2114058236695664,0.00015500493476557444,0.00015672938837843066,-1.3756450824552733e-06
3.246312408709453,0.0001359532011383931,6.848928237884538e-05,-7.018298278231558e-05
3.2812189937493397,0.00011861063190088102,2.7437523604349513e-05,-9.354532093454913e-05
3.3161255787892263,0.00010278714147978648,5.373893944059694e-06,-9.946899036532252e-05
3.351032163829113,8.832078039547156e-05,-4.395646126158059e-09,-9.009159164950714e-05
3.385938748868999,7.507287743982115e-05,-1.2882911233041531e-08,-7.658721789985062e-05
3.420845333908886,6.292417178361428e-05,-2.0565950567878434e-08,-6.420322116985444e-05
3.4557519189487724,5.1771710726692386e-05,-2.787289233084672e-08,-5.2835017833557085e-05
3.490658503988659,4.1526345708386284e-05,-3.492021655082731e-08,-4.2391792839104835e-05
3.5255650890285457,3.2110700517262364e-05,-4.175940498634997e-08,-3.279467393259396e-05
3.5604716740684323,2.3457516023466977e-05,-4.841704833066947e-08,-2.397508339226699e-05
3.595378259108319,1.550829838376758e-05,-5.490725603104213e-08,-1.587337160747397e-05
3.6302848441482056,8.212214748612903e-06,-6.123655662410483e-08,-8.437695600209266e-06
3.6651914291880923,1.525193592582248e-06,-6.740587305037395e-08,-1.6231033374842668e-06
3.7000980142279785,-4.5908029827970345e-06,-7.341086059887943e-08,4.517392122198155e-06
3.735004599267865,-1.016835943388081e-05,-7.924101890506875e-08,1.0089118414975741e-05
3.7699111843077517,-1.5235057120801218e-05,-8.487861064646391e-08,1.5150178510154755e-05
3.8048177693476384,-1.9813806596739648e-05,-9.030160277200089e-08,1.9723504993967647e-05
3.839724354387525,-2.3923068184750907e-05,-9.549567484935663e-08,2.382757250990155e-05
3.8746309394274117,-2.7586431064988175e-05,-1.0046458333346015e-07,2.7485966481654716e-05
3.9095375244672983,-3.0883036395886714e-05,-1.0522283378570188e-07,3.077781356210101e-05
3.944444109507185,-3.3790698145299235e-05,-1.0978340288139693e-07,3.3680914742417835e-05
3.9793506945470716,-3.6268039173382514e-05,-1.1415388122374489e-07,3.615388529215877e-05
4.014257279586958,-3.827793382911002e-05,-1.1833756318869195e-07,3.815959626592133e-05
4.049163864626845,-3.9786019921388156e-05,-1.223350921321641e-07,3.966368482925599e-05
4.084070449666731,-4.0759686703343786e-05,-1.2614557708583583e-07,4.063354112625795e-05
4.118977034706618,-4.116737854817227e-05,-1.2976724634500766e-07,4.103761130182726e-05
4.153883619746504,-4.0978149684476355e-05,-1.33197823696089e-07,4.0844951860780264e-05
4.1887902047863905,-4.0161482648954166e-05,-1.3643475070945866e-07,4.002504789824471e-05
4.223696789826278,-3.868747433264315e-05,-1.394753233620183e-07,3.854799900928113e-05
4.258603374866164,-3.652763873753744e-05,-1.423167794693503e-07,3.6385321958068094e-05
4.293509959906051,-3.361313435613409e-05,-1.4495635663361697e-07,3.346817799950047e-05
4.328416544945937,-2.9691012274756387e-05,-1.4739133162517565e-07,2.954362094313121e-05
4.363323129985824,-2.4524746939241233e-05,-1.4961904742554345e-07,2.437512789181569e-05
4.39822971502571,-1.7795300972719998e-05,-1.5163693156179808e-07,1.7643664041158198e-05
4.4331363000655974,-9.037464711481195e-06,-1.534425078806148e-07,8.88402220360058e-06
4.468042885105484,2.4520313516136325e-06,-1.5503340300063113e-07,-2.6561053816465362e-06
4.50294947014537,1.778614529049735e-05,-1.5640734810846794e-07,-1.8298275544415765e-05
4.537856055185257,3.883322191861533e-05,-1.575621763514992e-07,-3.976744853333913e-05
4.572762640225143,6.898455902307414e-05,-1.5849581574978592e-07,-7.052274601928541e-05
4.60766922526503,0.00011509772597391901,-1.5920627725427522e-07,-0.00011755888677065168
4.642575810304916,0.00019343700444319229,-1.5969163725581978e-07,-0.00019746543616931195
4.6774823953448035,0.00035420576649131965,-1.5995001346532453e-07,-0.00036144983183461135
4.71238898038469,0.000752677103293154,-1.5997953258959206e-07,-0.0007678906248916067
4.747295565424577,0.000807560214500524,-1.5977828753109646e-07,-0.0008238711970780657
4.782202150464463,0.0008496611017526759,-1.593442808465351e-07,-0.000866813668068576
4.817108735504349,0.0008876089391295195,-1.586753496978953e-07,-0.0009055197932618078
4.852015320544236,0.0009234317523576293,-1.5776906522512938e-07,-0.0009420581564700069
4.886921905584122,0.0009579842116585373,-1.5662259556491134e-07,-0.000977300518487273
4.9218284906240095,0.0009917109025077895,-1.5523251561693686e-07,-0.0010117003530735623
4.956735075663896,0.0010248698741113075,-1.5359453605317795e-07,-0.0010455208661295868
4.991641660703783,0.0010576203795218725,-1.5170310488076283e-07,-0.0010789244902171908
5.026548245743669,0.0010900637765617067,-1.4955079811250654e-07,-0.0011120146028910534
5.061454830783556,0.0011222649384361695,-1.471273410425058e-07,-0.0011448573645459353
5.096361415823442,0.0011542644491966763,-1.4441793583703022e-07,-0.0011774941561164469
5.1312680008633285,0.001186086014879026,-1.4140016861300696e-07,-0.0012099491353452195
5.1661745859032155,0.0012177412055315896,-1.3803766930911056e-07,-0.0012422340673115305
5.201081170943102,0.0012492326205511032,-1.3426520427550632e-07,-0.001274351538166401
5.235987755982989,0.001280556078137087,-1.2994635899514928e-07,-0.0013062971460588238
5.270894341022875,0.0013117021767829263,-1.247170004470034e-07,-0.001338060937319032
5.305800926062762,0.001342657439147998,-1.1717705431490193e-07,-0.001369627764985273
5.340707511102648,0.0013734051702200246,-9.874957411894377e-08,-0.001400972023198544
5.375614096142535,0.0014039261151340312,1.1735816885253809e-07,-0.0014318872792678594
5.410520681182422,0.0014341989734258788,1.0628267159926881e-06,-0.0014618201261784036
5.445427266222308,0.00146420080840126,3.1775162367814477e-06,-0.0014903073083325036
5.480333851262195,0.0014939073785369737,6.803156996526669e-06,-0.0015169823691111865
5.515240436302081,0.0015232934100017986,1.1968753757818048e-05,-0.0015417905244440163
5.550147021341968,0.0015523328240623997,1.8715890530995723e-05,-0.0015646635900126518
5.585053606381854,0.0015809989294530364,2.7181851731677584e-05,-0.0015854370563104195
5.619960191421741,0.0016092645871898408,3.757233865445892e-05,-0.0016038775402791787
5.654866776461628,0.001637102353450714,5.01308500452568e-05,-0.0016197135504744716
5.689773361501515,0.001664484604791667,6.51033211482596e-05,-0.0016326709757392406
5.724679946541401,0.001691383648977044,8.269960587266024e-05,-0.0016425117160839247
5.759586531581287,0.0017177718239615313,0.00010306032008218529,-0.0016490669403585766
5.794493116621174,0.00174362158700491,0.00012623736524842077,-0.0016522566534965875
5.82939970166106,0.0017689055954768786,0.00015219121694280452,-0.0016520924904436117
5.8643062867009474,0.0017935967805837525,0.00018080214903124796,-0.0016486665671641796
5.899212871740834,0.0018176684149964785,0.00021188949206401463,-0.0016421322912323936
5.934119456780721,0.0018410941751620337,0.0002452331769387808,-0.0016326828817264936
5.969026041820607,0.0018638481989245782,0.00028059363701552723,-0.0016205315258875424
6.003932626860494,0.0018859051389589474,0.00031772819261258596,-0.0016058950491255404
6.03883921190038,0.0019072402124197833,0.0003564036930637867,-0.0015889813236043924
6.073745796940266,0.0019278292471293745,0.0003964064162192907,-0.001569979415852671
6.1086523819801535,0.0019476487245617684,0.0004375513987031806,-0.0015490503003498229
6.14355896702004,0.0019666758198268143,0.00047969553001370565,-0.0015263138062096447
6.178465552059927,0.0019848884388128617,0.0005227652952168267,-0.001501820912372292
6.213372137099813,0.0020022652526089464,0.0005668361565956161,-0.0014754744010655094
6.2482787221397,0.002018785729294853,0.0006124430834515211,-0.001446718360429229
