theta,z_plus,lambda_top,edge_margin
0.0,0.0013593755301677503,0.0007877404098591917,-0.0005988226309119137
0.03490658503988659,0.0013677653432180585,0.001128193159852347,-0.0002669274902300726
0.06981317007977318,0.0013756006115982758,0.001507972760095724,0.00010486013626548264
0.10471975511965978,0.0013828716098251669,0.0019069913190531826,0.0004964622770315123
0.13962634015954636,0.0013895691326715471,0.0023151113664499493,0.0008977508511249712
0.17453292519943295,0.0013956845039548402,0.002727082594601085,0.001303484400567148
0.20943951023931956,0.0014012095835343552,0.0031399083541777404,0.001710674578972698
0.24434609527920614,0.0014061367724491959,0.0035516811449255612,0.0021174216370273818
0.2792526803190927,0.0014104590161094668,0.00396105742200898,0.002522389225577324
0.3141592653589793,0.001414169805431679,0.004367006299406968,0.0029245530978666548
0.3490658503988659,0.0014172631757841502,0.004768681522508143,0.0033230730832083098
0.3839724354387525,0.001419733703578719,0.005165352425399654,0.0037172240477493603
0.4188790204786391,0.0014215765003099622,0.00555636483014854,0.004106356799832378
0.4537856055185257,0.0014227872038007317,0.005941117975711398,0.004489875027834652
0.4886921905584123,0.0014233619663611586,0.006319050439805679,0.004867221234117298
0.5235987755982988,0.0014232974395046588,0.006689631316772339,0.005237867928477587
0.5585053606381855,0.0014225907547854718,0.0070523545789523065,0.005601312009071125
0.5934119456780721,0.0014212395002232937,0.0074067354271842075,0.0059570711369564475
0.6283185307179586,0.001419241691655602,0.007752307918164031,0.006304681392675317
0.6632251157578453,0.0014165957381990979,0.008088623430767746,0.006643695777804666
0.6981317007977318,0.0014133004007972694,0.008415249694643908,0.006973683285830693
0.7330382858376184,0.001409354742566157,0.008731770201868487,0.0072942283644510065
0.767944870877505,0.0014047580693038282,0.009037783882957246,0.007604930652267342
0.8028514559173916,0.0013995098580711475,0.00933290496697601,0.007905404911743439
0.8377580409572782,0.0013936096711398135,0.009616762970447775,0.008195281105885166
0.8726646259971648,0.001387057051777302,0.009889002776279826,0.008474204583466979
0.9075712110370514,0.0013798513972078461,0.010149284775072799,0.008741836349920797
0.9424777960769379,0.001371991802520782,0.010397285048809674,0.008997853410238477
0.9773843811168246,0.0013634768670908017,0.010632695582237565,0.009241949177804947
1.0122909661567112,0.0013543044519175396,0.010855224491010385,0.009473833950054494
1.0471975511965976,0.0013444713716933476,0.011064596258349246,0.009693235459222032
1.0821041362364843,0.0013339729985756253,0.011260551973927974,0.009899899515380835
1.117010721276371,0.0013228027442609826,0.011442849570124793,0.01009359077097859
1.1519173063162575,0.0013109513707955738,0.011611264051847228,0.010274093653635743
1.1868238913561442,0.001298406054669853,0.011765587716939703,0.010441213541176452
1.2217304763960306,0.0012851490859418062,0.011905630364795045,0.010594778297134403
1.2566370614359172,0.0012711560107045699,0.012031219491263272,0.010734640360344612
1.2915436464758039,0.0012563928937541025,0.01214220046831948,0.010860679716690295
1.3264502315156905,0.0012408121308005971,0.012238436707245583,0.010972808333828974
1.361356816555577,0.0012243457445803305,0.012319809804315176,0.011070977144843239
1.3962634015954636,0.0012068940336007487,0.01238621966816304,0.011155187753890275
1.4311699866353502,0.0011883049260376826,0.012437584628180547,0.011225513603622112
1.4660765716752369,0.0011683326933769906,0.012473841523413175,0.011282142176168644
1.5009831567151235,0.0011465436933169512,0.012494945771553516,0.011325471204370226
1.53588974175501,0.0011220534068117547,0.012500871417726735,0.011356376942778745
1.5707963267948966,0.0010924909354981163,0.01249161116285908,0.011377270408651002
1.6057029118347832,0.0010473731112928804,0.012467176371508095,0.011398855797989358
1.6406094968746698,0.0009790733913580035,0.012427597059116342,0.011428942199931178
1.6755160819145565,0.0009164362834737089,0.01237292185873376,0.011438156849590576
1.710422666954443,0.0008650248510987743,0.012303217967337177,0.011420892619216428
1.7453292519943295,0.0008225695069650447,0.0122185710719632,0.011379550174858855
1.7802358370342162,0.0007867116772845466,0.012119085255964977,0.011316639345134738
1.8151424220741028,0.0007557160292744967,0.012004882885806707,0.01123405253594672
1.8500490071139892,0.0007283587896398549,0.011876104478927221,0.011133178513494569
1.8849555921538759,0.0007037708254483347,0.01173290855333942,0.011015062311382119
1.9198621771937625,0.0006813233996278303,0.011575471459792437,0.01088052159217205
1.9547687622336491,0.0006605524009076219,0.011403987197515918,0.010730223748590144
1.9896753472735358,0.0006411086178401182,0.011218667214801796,0.010564736424604875
2.0245819323134224,0.0006227247125158264,0.011019740195972204,0.010384560989206062
2.059488517353309,0.0006051928707795018,0.010807451836652444,0.010190155108457352
2.0943951023931953,0.0005883493676913294,0.010582064609742233,0.009981948254697077
2.129301687433082,0.0005720636944403197,0.010343857525092214,0.009760352556763089
2.1642082724729685,0.000556230753189206,0.010093125886699566,0.009525770518446575
2.199114857512855,0.0005407651550524826,0.00983018105230744,0.009278600594153908
2.234021442552742,0.0005255969860115704,0.00955535020173377,0.009019241276001967
2.2689280275926285,0.0005106686146367703,0.009268976122216097,0.00874809413528659
2.303834612632515,0.0004959322505111289,0.00897141702176281,0.008465566126241457
2.3387411976724017,0.00048134805100616125,0.008663046385277687,0.008172071373251403
2.3736477827122884,0.00046688263336777067,0.008344252893572148,0.007868032607537023
2.4085543677521746,0.0004525078892892228,0.008015440433063046,0.007553882385988039
2.443460952792061,0.00043820002675180756,0.007677028235166,0.007230064207879156
2.478367537831948,0.00042393878300522165,0.0073294512010316434,0.006897033642366318
2.5132741228718345,0.0004097067657576375,0.006973160492409168,0.006555259591336378
2.548180707911721,0.0003954888886122052,0.0066086245081556395,0.00620522584177119
2.5830872929516078,0.0003812718725349668,0.006236330426888604,0.005847433116902938
2.6179938779914944,0.0003670437881953881,0.005856786594572125,0.0054824019306128294
2.652900463031381,0.0003527936144792721,0.005470526198438429,0.005110676711669571
2.6878070480712677,0.00033851078593882106,0.005078112945534324,0.004732831943876727
2.722713633111154,0.0003241846953125209,0.004680149951012894,0.004349481561794123
2.7576202181510405,0.000309804104199722,0.004277293928446735,0.003961293742163019
2.792526803190927,0.00029535639086475455,0.0038702784571904656,0.003569014938508416
2.827433388230814,0.0002808265195072614,0.0034599534399706224,0.003173510390073216
2.8623399732707004,0.0002661955300127102,0.0030473548245635914,0.002775835383950627
2.897246558310587,0.00025143817550875964,0.00263383399075744,0.002377367051738505
2.9321531433504737,0.0002365189649106883,0.002221311919743266,0.001980062575534364
2.9670597283903604,0.00022138499494760643,0.0018128107424056155,0.001586998047559057
3.001966313430247,0.00020595164130212502,0.001413632304671794,0.0012035616305436266
3.036872898470133,0.00019006995740480887,0.0010340165600912282,0.0008401452035383232
3.07177948351002,0.00017343594337354478,0.0006941856113475945,0.0005172809491065788
3.1066860685499065,0.0001552276711247897,0.00042597765044978937,0.00026764542590250386
3.141592653589793,0.00025246812609447513,0.00024872600781606415,-8.79148080030047e-06
3.1764992386296798,0.00013344979484704658,0.00014327691878843283,7.158128044445328e-06
3.2114058236695664,0.00012170575542500523,7.984177810190456e-05,-4.429809243160077e-05
3.246312408709453,0.00011077558907199725,4.0585607371576073e-05,-7.240549348186111e-05
3.2812189937493397,0.00010059754284522094,1.717801644193946e-05,-8.54314772601859e-05
3.3161255787892263,9.111638784247764e-05,4.215686101497747e-06,-8.872302949782946e-05
3.351032163829113,8.228268457414548e-05,-3.871428580186469e-09,-8.393220969420857e-05
3.385938748868999,7.405215321430657e-05,-1.0653703164002604e-08,-7.554384998175671e-05
3.420845333908886,6.638513365608598e-05,-1.620865034827639e-08,-6.772904497955598e-05
3.4557519189487724,5.924612302841011e-05,-2.1301053334494357e-08,-6.0452346542312814e-05
3.490658503988659,5.260338060580545e-05,-2.6120340064114446e-08,-5.3681568557985675e-05
3.5255650890285457,4.642859196350219e-05,-3.074449024723951e-08,-4.738790829301948e-05
3.5604716740684323,4.069658588265161e-05,-3.521294474988738e-08,-4.154573054505453e-05
3.595378259108319,3.5385098967891514e-05,-3.9547785602458714e-08,-3.6132348732851806e-05
3.6302848441482056,3.0474584266856687e-05,-4.376197496357507e-08,-3.11278379271574e-05
3.6651914291880923,2.594806144008464e-05,-4.786317848703182e-08,-2.6514885847373365e-05
3.7000980142279785,2.179100728270143e-05,-5.1855764294792965e-08,-2.2278683192650252e-05
3.735004599267865,1.7991286715022364e-05,-5.5741942431954594e-08,-1.8406854391754763e-05
3.7699111843077517,1.4539125819039307e-05,-5.952245851808075e-08,-1.4889430793938175e-05
3.8048177693476384,1.1427130204020398e-05,-6.319703851672441e-08,-1.171886984661753e-05
3.839724354387525,8.650354072601913e-06,-6.676468621174454e-08,-8.890125840265696e-06
3.8746309394274117,6.206428015135819e-06,-7.022388928503033e-08,-6.400780464723566e-06
3.9095375244672983,4.095757048623663e-06,-7.357276639420064e-08,-4.251244955990336e-06
3.944444109507185,2.3218051201911883e-06,-7.680917487286688e-08,-2.445050397467879e-06
3.9793506945470716,8.91488780641583e-07,-7.993079137520595e-08,-9.892493476296207e-07
4.014257279586958,-1.8428814333287776e-07,-8.29351734557658e-08,1.0135296987711196e-07
4.049163864626845,-8.899139737819742e-07,-8.581980740301683e-08,8.040941663789573e-07
4.084070449666731,-1.2040987078444236e-06,-8.858214595128113e-08,1.1155165618931424e-06
4.118977034706618,-1.098561247309308e-06,-9.12196383914207e-08,1.0073416089178873e-06
4.153883619746504,-5.362388249796835e-07,-9.372975486464687e-08,4.425090701150366e-07
4.1887902047863905,5.311837175886223e-07,-9.611000611662311e-08,-6.379173980570178e-07
4.223696789826278,2.1667332274451652e-06,-9.835795963790334e-08,-2.3084258516319718e-06
4.258603374866164,4.453077296041775e-06,-1.004712528696779e-07,-4.6426100948322884e-06
4.293509959906051,7.499693797049345e-06,-1.0244760396842932e-07,-7.752135276958763e-06
4.328416544945937,1.145355284038281e-05,-1.0428482048592704e-07,-1.1786908717676394e-05
4.363323129985824,1.6515483141976056e-05,-1.0598080622010694e-07,-1.6951773611035682e-05
4.39822971502571,2.2966080653175023e-05,-1.0753356640760066e-07,-2.3532935832646122e-05
4.4331363000655974,3.120833307490068e-05,-1.0894121135857016e-07,-3.194144094775726e-05
4.468042885105484,4.184104137676744e-05,-1.1020195857198027e-07,-4.2788064162874765e-05
4.50294947014537,5.5792533092358394e-05,-1.1131413331312557e-07,-5.701969788751869e-05
4.537856055185257,7.458156562822257e-05,-1.12276167570252e-07,-7.618547310835728e-05
4.572762640225143,0.00010087313493765183,-1.1308659724158141e-07,-0.00010300368423364644
4.60766922526503,0.00013980831852258523,-1.1374405732357209e-07,-0.00014271822895036053
4.642575810304916,0.000202745824577675,-1.1424727476723067e-07,-0.00020691498834399572
4.6774823953448035,0.00032072820908876697,-1.1459505853896798e-07,-0.0003272573683290813
4.71238898038469,0.0005788887917274705,-1.1478628624357226e-07,-0.0005905813538482635
4.747295565424577,0.0006178978385095159,-1.1481988641724724e-07,-0.0006303706151661236
4.782202150464463,0.000645759232448045,-1.1469481524727175e-07,-0.0006587891119122531
4.817108735504349,0.0006703354206126933,-1.1441002596398661e-07,-0.0006838565390509112
4.852015320544236,0.0006932321020922631,-1.1396442838761855e-07,-0.000707210708562496
4.886921905584122,0.0007151071647266439,-1.1335683495952344e-07,-0.0007295226648561363
4.9218284906240095,0.0007362998278336126,-1.1258588778087283e-07,-0.0007511384102780658
4.956735075663896,0.0007570072263830804,-1.1164995828548767e-07,-0.0007722590208690275
4.991641660703783,0.0007773521811170255,-1.1054700638304148e-07,-0.000793009771745749
5.026548245743669,0.0007974143431752324,-1.0927437766382072e-07,-0.0008134719044164008
5.061454830783556,0.0008172463355256739,-1.0782850252574438e-07,-0.0008336990907387131
5.096361415823442,0.0008368828786362667,-1.062044333995996e-07,-0.0008537267406423916
5.1312680008633285,0.0008563463034682717,-1.0439510119607365e-07,-0.0008735776246388331
5.1661745859032155,0.0008756500617253352,-1.0239005478509466e-07,-0.000893265453014627
5.201081170943102,0.0008948010589666298,-1.0017317505189237e-07,-0.0009127972533210144
5.235987755982989,0.0009138012620926896,-9.771815050030613e-08,-0.0009321750054850437
5.270894341022875,0.0009326488414581617,-9.497839477413454e-08,-0.0009513967966820991
5.305800926062762,0.0009513390043540542,-9.18603708261539e-08,-0.0009704576448119614
5.340707511102648,0.0009698646178388126,-8.81307212374948e-08,-0.0009893500409168263
5.375614096142535,0.0009882166841542674,-8.287104468353144e-08,-0.0010080638888820364
5.410520681182422,0.001006384710688095,-6.271303507264032e-08,-0.0010265751179369298
5.445427266222308,0.0010243570030134797,1.4622392107067516e-07,-0.0010446979191526787
5.480333851262195,0.0010421209008262334,7.782839322216363e-07,-0.0010621850349105365
5.515240436302081,0.0010596629708144174,1.8555503067827887e-06,-0.001079000679923923
5.550147021341968,0.0010769691665702419,3.316081733188178e-06,-0.0010951924681684587
5.585053606381854,0.001094024962939261,5.143512376215499e-06,-0.0011107619498218308
5.619960191421741,0.0011108154702914761,7.350327933078169e-06,-0.0011256814517642275
5.654866776461628,0.0011273255328332083,9.964037730294271e-06,-0.0011399080057595782
5.689773361501515,0.0011435398140881255,1.302855121486916e-05,-0.0011533820591550189
5.724679946541401,0.001159442871947863,1.6610827123603277e-05,-0.0011660209022632169
5.759586531581287,0.0011750192251511985,2.080827937968153e-05,-0.001177711330274541
5.794493116621174,0.0011902534126433295,2.575419927034072e-05,-0.0011883042816258555
5.82939970166106,0.0012051300469570862,3.1618234006558333e-05,-0.0011976144138896698
5.8643062867009474,0.0012196338625200915,3.859969264939278e-05,-0.0012054268471211006
5.899212871740834,0.0012337497596075807,4.691541306224644e-05,-0.001211509341737486
5.934119456780721,0.0012474628445165383,5.678958424530736e-05,-0.0012156225171615618
5.969026041820607,0.0012607584664231593,6.845606787797024e-05,-0.0012175175678736522
6.003932626860494,0.0012736222512953535,8.218725675692427e-05,-0.0012169074395643365
6.03883921190038,0.0012860401331595437,9.838639735135725e-05,-0.0012133745384713772
6.073745796940266,0.0012979983829624665,0.00011787800453393711,-0.0012060803460877787
6.1086523819801535,0.0013094836352208843,0.00014285786764224587,-0.001192815440283056
6.14355896702004,0.0013204829126127094,0.00017923242099580184,-0.0011676601498691616
6.178465552059927,0.001330983648630236,0.0002388349600887837,-0.0011187683615140572
6.213372137099813,0.0013409737083884222,0.00034177646731331284,-0.0010260167152428778
6.2482787221397,0.0013504414076574178,0.0005187036696160211,-0.000858746566194545
