theta,z_plus,lambda_top,edge_margin
0.0,0.001970399307002708,0.000711784294239014,-0.001298022998903748
0.03490658503988659,0.0019843934454511756,0.0011573480431914945,-0.0008667332711687044
0.06981317007977318,0.0019975141377842074,0.0019401801707413196,-9.728424979857202e-05
0.10471975511965978,0.002009745178153281,0.0028233997833123385,0.000773459701595992
0.13962634015954636,0.002021071231325044,0.0037384360085536503,0.0016769433526021057
0.17453292519943295,0.0020314778481521694,0.004664049245068606,0.0025919418399533932
0.20943951023931956,0.00204095147843432,0.005591693260956088,0.003509922752953082
0.24434609527920614,0.0020494794810735567,0.006516959710123163,0.004426490639428135
0.2792526803190927,0.00205705013140288,0.007437066917330302,0.0053388757832993645
0.3141592653589793,0.0020636526255375367,0.008349973019708627,0.00624504734166034
0.3490658503988659,0.0020692770815652233,0.009254013632682925,0.007143351009486397
0.3839724354387525,0.0020739145373519325,0.010147736426203558,0.008032343598104588
0.4188790204786391,0.0020775569446932684,0.011029818899707866,0.008910710816120732
0.4537856055185257,0.0020801971594843834,0.011899024760599033,0.009777223657924963
0.4886921905584123,0.00208182892751261,0.012754179617891749,0.010630714111828886
0.5235987755982988,0.0020824468653917747,0.013594156955945687,0.011470061153246076
0.5585053606381855,0.002082046436051501,0.014417869867111043,0.012294182502338512
0.5934119456780721,0.002080623918062451,0.015224266151598703,0.013102029755175004
0.6283185307179586,0.0020781763679113352,0.01601232545793472,0.013892585562665156
0.6632251157578453,0.0020747015741267544,0.016781057697329328,0.014664862091720039
0.6981317007977318,0.0020701980018837836,0.017529502272718045,0.015417900310796585
0.7330382858376184,0.002064664726361404,0.018256727838512316,0.016150769817623683
0.767944870877505,0.0020581013526643852,0.01896183241041772,0.016862569030700048
0.8028514559173916,0.0020505079195105393,0.019643943707414332,0.017552425629513584
0.8377580409572782,0.002041884783069435,0.02030221964711048,0.018219497168379655
0.8726646259971648,0.00203223247623886,0.020935848940662943,0.018862971814899307
0.9075712110370514,0.0020215515371424624,0.021544051749761976,0.019482069181876664
0.9424777960769379,0.0020098422985506056,0.02212608037903757,0.020076041234515955
0.9773843811168246,0.0019971046270011623,0.022681219984606912,0.020644173265065728
1.0122909661567112,0.001983337596218991,0.023208789284565122,0.021185784936421752
1.0471975511965976,0.00196853907335906,0.023708141260786533,0.021700231405960294
1.0821041362364843,0.0019527051875934804,0.024178663843941732,0.022186904552596382
1.117010721276371,0.001935829636918061,0.024619780575473572,0.02264523434581715
1.1519173063162575,0.001917902767866586,0.025030951241622794,0.023074690418398876
1.1868238913561442,0.0018989103290004456,0.025411672475598564,0.02347478394001811
1.2217304763960306,0.0018788317433334654,0.02576147832474987,0.023845069946549734
1.2566370614359172,0.0018576376497247494,0.02607994078017703,0.024185150377457786
1.2915436464758039,0.0018352862938930754,0.026366670266679736,0.024494678246908798
1.3264502315156905,0.00181171803291069,0.02662131609129975,0.02477336369773085
1.361356816555577,0.0017868465886699645,0.02684356684901073,0.025020983328567364
1.3962634015954636,0.0017605443470558233,0.027033150784348804,0.025237395550351864
1.4311699866353502,0.0017326158811590447,0.02718983610798168,0.025422567909199455
1.4660765716752369,0.0017027457293115884,0.027313431267388492,0.025576630623490672
1.5009831567151235,0.0016703816187036453,0.02740378517097558,0.025699995919897863
1.53588974175501,0.001634419896510403,0.027460787365090077,0.025793679070649465
1.5707963267948966,0.001592054408629828,0.027484368163518888,0.025860472666716462
1.6057029118347832,0.0015323909541168647,0.027474498729175352,0.02591145995597615
1.6406094968746698,0.0014437533446840947,0.0274311911077881,0.025958562696210323
1.6755160819145565,0.0013584591431578393,0.027354498213511422,0.025968869887490427
1.710422666954443,0.0012867933838790332,0.027244513766482896,0.02593198451492628
1.7453292519943295,0.001226758416924322,0.027101372182458602,0.025850078597195795
1.7802358370342162,0.0011755118592418556,0.026925248414764,0.025726226318337306
1.8151424220741028,0.001130825792125581,0.02671635774891081,0.02556291544094272
1.8500490071139892,0.0010910840312119605,0.026474955550348504,0.025362049838512306
1.8849555921538759,0.0010551199601477879,0.026201336965947578,0.025125114606596832
1.9198621771937625,0.0010220807093044213,0.02589583657995352,0.024853314256463012
1.9547687622336491,0.0009913321329278221,0.025558828025309274,0.024547669249722896
1.9896753472735358,0.0009623946232617816,0.025190723551427985,0.024209081035700967
2.0245819323134224,0.0009348996907139996,0.024791973549711716,0.023838375865183437
2.059488517353309,0.0009085601996174405,0.02436306603837018,0.023436334634760393
2.0943951023931953,0.0008831496142055059,0.023904526108406363,0.023003713501916746
2.129301687433082,0.0008584872671171972,0.02341691533302701,0.022541258320567466
2.1642082724729685,0.00083442771926669,0.022900831143229668,0.022049714869577644
2.199114857512855,0.0008108529466524734,0.022356906172954112,0.021529836167368588
2.234021442552742,0.0007876665130383966,0.021785807578017555,0.02098238773471839
2.2689280275926285,0.0007647891596580664,0.021188236334159435,0.020408151391308207
2.303834612632515,0.0007421554207777204,0.020564926521011037,0.019807927991817763
2.3387411976724017,0.0007197109917480637,0.019916644600847216,0.019182539389264192
2.3736477827122884,0.0006974106554515795,0.0192441887038136,0.01853282983525299
2.4085543677521746,0.0006752166271433064,0.01854838793532295,0.01785966697563678
2.443460952792061,0.0006530972150182895,0.01783010172705108,0.017163942567732425
2.478367537831948,0.000631025719806129,0.017090219261318842,0.01644657302711659
2.5132741228718345,0.0006089795147599214,0.016329659011043184,0.015708499905988063
2.548180707911721,0.0005869392597926093,0.015549368456174429,0.014950690411185968
2.5830872929516078,0.0005648882115850369,0.014750324066441958,0.01417413809062522
2.6179938779914944,0.0005428115959752525,0.013933531685836067,0.01337986385794131
2.652900463031381,0.0005206960100005867,0.013100027528014459,0.01256891759781386
2.6878070480712677,0.0004985288181288206,0.012250880114444074,0.011742380719952678
2.722713633111154,0.0004762974990943865,0.011387193697301267,0.010901370248224993
2.7576202181510405,0.0004539888833964188,0.010510114082239501,0.010047045421175153
2.792526803190927,0.0004315881909638862,0.009620838454911011,0.009180618500127847
2.827433388230814,0.00040907772157610734,0.008720632145560445,0.008303372869552815
2.8623399732707004,0.00038643494135166,0.007810857974204249,0.007416694334025556
2.897246558310587,0.0003636294879338972,0.0068930296812667845,0.00652212760357421
2.9321531433504737,0.00034061813968818387,0.00596891460008937,0.0056214840976074225
2.9670597283903604,0.00031733566547749014,0.005040745440029073,0.004717063061242034
3.001966313430247,0.0002936764690305991,0.004111699307750556,0.003812149309339345
3.036872898470133,0.00026945255029478055,0.003187119327581236,0.00291227772628056
3.07177948351002,0.0002442759000874601,0.0022781511807099253,0.002028989762620716
3.1066860685499065,0.00021708571761674375,0.0014146489747041114,0.0011932215427350326
3.141592653589793,0.00035163357950153824,0.0006907237449346686,0.0003320574938430996
3.1764992386296798,0.0001718087357185929,0.0002755410973395282,0.00010029618690656349
3.2114058236695664,0.0001519008175034908,0.00012080235116076628,-3.413648269279433e-05
3.246312408709453,0.0001337805465181497,6.081959398231494e-05,-7.563656346619775e-05
3.2812189937493397,0.00011724736165770529,2.5337055562068193e-05,-9.42552533287912e-05
3.3161255787892263,0.00010213043884467086,5.17063691093915e-06,-9.900241071062512e-05
3.351032163829113,8.828352844580591e-05,-4.451929939735149e-09,-9.005365094466177e-05
3.385938748868999,7.558084653573339e-05,-1.2994472578332097e-08,-7.710545793902638e-05
3.420845333908886,6.391378015564038e-05,-2.065660012878485e-08,-6.521271235888198e-05
3.4557519189487724,5.318822766910056e-05,-2.789177382282279e-08,-5.427988399630539e-05
3.490658503988659,4.332243950907161e-05,-3.4796332795216384e-08,-4.422368463204826e-05
3.5255650890285457,3.4245257044133715e-05,-4.140058953529404e-08,-3.497156277455168e-05
3.5604716740684323,2.5894671386724593e-05,-4.7725627192801597e-08,-2.6460290441651887e-05
3.595378259108319,1.8216642091176787e-05,-5.379863038874005e-08,-1.8634773563389063e-05
3.6302848441482056,1.1164129511819041e-05,-5.964829944012351e-08,-1.1447060401495545e-05
3.6651914291880923,4.696305303392095e-06,-6.529822045337316e-08,-4.85552962991331e-06
3.7000980142279785,-1.2220859827118902e-06,-7.076507515457889e-08,1.1513209075573113e-06
3.735004599267865,-6.621234370373549e-06,-7.605969348947364e-08,6.545174676884076e-06
3.7699111843077517,-1.1526655360552567e-05,-8.11886329189506e-08,1.1445466727633617e-05
3.8048177693476384,-1.5959473481834775e-05,-8.615547274441342e-08,1.5873318009090363e-05
3.839724354387525,-1.9936602846166663e-05,-9.09617308914361e-08,1.984564111527523e-05
3.8746309394274117,-2.3470824104283547e-05,-9.560748910087758e-08,2.337521661518267e-05
3.9095375244672983,-2.6570751705788478e-05,-1.0009181962532142e-07,2.6470659886163157e-05
3.944444109507185,-2.9252768824597387e-05,-1.0441308107523508e-07,2.914835574352215e-05
3.9793506945470716,-3.153759408778698e-05,-1.085691278735464e-07,3.1429024959913436e-05
4.014257279586958,-3.3392502823808925e-05,-1.1255746181011349e-07,3.327994536199881e-05
4.049163864626845,-3.478444266627088e-05,-1.1637534399491413e-07,3.466806732227596e-05
4.084070449666731,-3.568248291539893e-05,-1.2001987911714873e-07,3.556246303628178e-05
4.118977034706618,-3.605712551117796e-05,-1.2348807990170071e-07,3.5933637431276257e-05
4.153883619746504,-3.587990655527316e-05,-1.2677691707466764e-07,3.575312963819849e-05
4.1887902047863905,-3.512330138396342e-05,-1.2988335849046408e-07,3.4993418025472956e-05
4.223696789826278,-3.375880223501257e-05,-1.3280439995417014e-07,3.36259978350584e-05
4.258603374866164,-3.1682998266473525e-05,-1.355370895249417e-07,3.154746117694859e-05
4.293509959906051,-2.8758144488987996e-05,-1.3807854656076543e-07,2.862006594242723e-05
4.328416544945937,-2.4822717822548483e-05,-1.4042597639188184e-07,2.46822918461566e-05
4.363323129985824,-1.96530698567374e-05,-1.425766812356152e-07,1.9510493175501784e-05
4.39822971502571,-1.2932560970307913e-05,-1.4452806775243645e-07,1.2788032902555477e-05
4.4331363000655974,-4.199942933483277e-06,-1.4627765147639358e-07,4.053665282006884e-06
4.468042885105484,7.241299525832261e-06,-1.4782305820099294e-07,-7.533948574549899e-06
4.50294947014537,2.2492021849563938e-05,-1.4916202226819093e-07,-2.309102430882341e-05
4.537856055185257,4.3397311495836874e-05,-1.5029238156323322e-07,-4.4415550107316844e-05
4.572762640225143,7.329924933531364e-05,-1.5121206886707068e-07,-7.491644639088698e-05
4.60766922526503,0.00011893608220046207,-1.5191909902566779e-07,-0.00012146672294349697
4.642575810304916,0.0001962174691090936,-1.5241155116576486e-07,-0.00020029423004244124
4.6774823953448035,0.0003538625616630691,-1.526875448741953e-07,-0.0003610925004412047
4.71238898038469,0.0007437826001727262,-1.5274520883203607e-07,-0.0007588109973850127
4.747295565424577,0.000797390913800334,-1.5258263980610977e-07,-0.0008134913147161469
4.782202150464463,0.0008381354904738696,-1.5219784903418358e-07,-0.0008550503981323811
4.817108735504349,0.0008747524611908454,-1.5158869178229937e-07,-0.0008923990991064446
4.852015320544236,0.000909257162533492,-1.5075277392575825e-07,-0.0009275930585580876
4.886921905584122,0.0009424954655200148,-1.4968732642542505e-07,-0.0009614950621568406
4.9218284906240095,0.0009749068250826767,-1.4838903377469952e-07,-0.0009945533506181049
4.956735075663896,0.0010067463758738724,-1.4685379455176046e-07,-0.0010270281571859016
4.991641660703783,0.0010381718127555604,-1.4507637850859648e-07,-0.0010590803253891802
5.026548245743669,0.0010692838049232204,-1.4304991997432604e-07,-0.0010908125309416592
5.061454830783556,0.0011001471200551656,-1.4076514058786078e-07,-0.0011222908275968567
5.096361415823442,0.0011308026430995087,-1.3820910025697085e-07,-0.001153556905061756
5.1312680008633285,0.0011612746735604417,-1.3536307167070283e-07,-0.0011846355301033211
5.1661745859032155,0.0011915755912320694,-1.321986533530166e-07,-0.001215539301710064
5.201081170943102,0.001221708968601259,-1.286699738467401e-07,-0.0012462718179471308
5.235987755982989,0.0012516717224171038,-1.2469603122815907e-07,-0.001276829852896674
5.270894341022875,0.0012814556472915527,-1.201134017293623e-07,-0.001307204873639113
5.305800926062762,0.0013110485385002734,-1.1451445730247568e-07,-0.0013373840237275814
5.340707511102648,0.0013404350338384878,-1.0642196386977537e-07,-0.0013673501564791274
5.375614096142535,0.0013695972585339887,-8.42529002656429e-08,-0.0013970734566049342
5.410520681182422,0.0013985153290684206,1.103680366407444e-07,-0.0014263752676131483
5.445427266222308,0.001427167753944892,8.81734694500649e-07,-0.0014548293743292893
5.480333851262195,0.001455531757864683,2.6597496869030004e-06,-0.0014819826433350738
5.515240436302081,0.001483583548074366,6.013907875150423e-06,-0.0015072413111607028
5.550147021341968,0.0015112985364112359,1.124481620502679e-05,-0.0015302796909344336
5.585053606381854,0.0015386515269504592,1.8507907472424185e-05,-0.0015509166500170444
5.619960191421741,0.0015656168766037134,2.797061635766775e-05,-0.0015689585977781198
5.654866776461628,0.0015921686341914898,3.982427145151793e-05,-0.0015841877354238016
5.689773361501515,0.0016182806621845352,5.426600739488283e-05,-0.0015963802680333432
5.724679946541401,0.0016439267443340206,7.147173675962199e-05,-0.0016053335424610791
5.759586531581287,0.001669080681683556,9.156866093407493e-05,-0.0016108936343831523
5.794493116621174,0.0016937163789092044,0.0001146146213649489,-0.0016129760851224396
5.82939970166106,0.0017178079225175762,0.00014058792647998067,-0.0016115761544879472
5.8643062867009474,0.0017413296521124636,0.00016938847958878082,-0.001606767765565932
5.899212871740834,0.0017642562256926493,0.00020084892007548742,-0.0015986924301310149
5.934119456780721,0.0017865626797497615,0.00023475271358708725,-0.0015875412197576696
5.969026041820607,0.0018082244847821567,0.00027085524408610514,-0.0015735337303916948
6.003932626860494,0.0018292175967192861,0.0003089045027925233,-0.0015568974458611486
6.03883921190038,0.0018495185046535363,0.00034865975843139974,-0.0015378491163152072
6.073745796940266,0.0018691042751977321,0.000389909196519224,-0.0015165771641824628
6.1086523819801535,0.0018879525937221977,0.000432491410072905,-0.0014932202355237368
6.14355896702004,0.0019060418026723073,0.0004763345612507547,-0.0014678280774749987
6.178465552059927,0.001923350937123351,0.000521558196993292,-0.0014402597588725262
6.213372137099813,0.00193985975769229,0.00056883418516274,-0.0014098227676833958
6.2482787221397,0.0019555487808941203,0.0006213647164218816,-0.001373295040090121
