theta,z_plus,z_plus_cvec,lambda_top,edge_margin
0.0,1.0119195089713022,5.0264891687282045,0.0040841158835909705,-1.0108711516146252
0.05235987755982988,1.0628723166658132,5.071938208419752,0.0048811490947236,-1.061179784521087
0.10471975511965977,1.1109191863611976,5.103488852081655,0.005791576846898185,-1.108460367073383
0.15707963267948966,1.1559284951708868,5.121054659634206,0.006783930927986459,-1.152612349728413
0.20943951023931953,1.1977769934985585,5.124587548844266,0.007828842382876476,-1.1935414820961776
0.2617993877991494,1.2363501454140298,5.114077929011103,0.008903070070830538,-1.2311561257794412
0.3141592653589793,1.2715424462895841,5.089554730056898,0.009989306666752181,-1.2653677669617007
0.36651914291880916,1.303257716964235,5.051085327111117,0.01107472555967098,-1.2960927645554567
0.41887902047863906,1.3314093738172668,4.998775361039472,0.012149599070888261,-1.3232540028678303
0.47123889803846897,1.355920674255711,4.932768455753699,0.013206292530903522,-1.3467821437475747
0.5235987755982988,1.3767249372544905,4.853245833559317,0.014238594973434347,-1.3666165170928197
0.5759586531581287,1.3937657387335467,4.760425830272271,0.015241287050504603,-1.3827057488992427
0.6283185307179586,1.4069970817127664,4.654563312388867,0.016209863563567364,-1.3950082093943372
0.6806784082777885,1.4163835413498207,4.535948999269025,0.017140354329720234,-1.40349233764415
0.7330382858376183,1.4219003851298977,4.404908694158028,0.018029207464387062,-1.4081368788209003
0.7853981633974483,1.4235336686224913,4.261802429035465,0.018873212604369038,-1.4089310570239897
0.8377580409572781,1.4212803073156044,4.1070235299202675,0.01966945000649247,-1.4058746982310588
0.890117918517108,1.4151481250216527,3.94099761167401,0.020415256638137383,-1.3989783127585802
0.9424777960769379,1.4051558791183043,3.764181515030643,0.021108203570687878,-1.3882631431849712
0.9948376736367678,1.3913332622716985,3.5770622043898,0.021746080975077187,-1.3737611810834365
1.0471975511965976,1.3737208790282274,3.380155654298219,0.022326888272253605,-1.3555151533930585
1.0995574287564276,1.3523701933892498,3.1740057679789158,0.02284882779392866,-1.3335784761754887
1.1519173063162573,1.327343439766782,2.9591833967945624,0.023310300830962735,-1.3080151692551196
1.2042771838760873,1.2987134842173216,2.736285571100842,0.023709905291823916,-1.2788997193781497
1.2566370614359172,1.2665636157352977,2.505935116511404,0.024046434425456766,-1.246316872157047
1.308996938995747,1.2309872401255926,2.268780908835205,0.02431887622137048,-1.2103613256245989
1.361356816555577,1.1920874453828862,2.0254990466959013,0.024526413209961302,-1.1711372945090734
1.413716694115407,1.149976414254475,1.7767948991219222,0.02466842246420292,-1.1287579210330356
1.4660765716752366,1.1047746843595199,1.5234044654321657,0.02474447566045259,-1.0833445327521458
1.5184364492350666,1.0566103011189543,1.266089580423961,0.02475433909827922,-1.0350257929240319
1.5707963267948966,1.0056179616855159,1.005617961685516,0.024697973611740358,-0.9839368419588321
1.6231562043547263,0.9519382801396779,0.7427297421712338,0.024575534330814813,-0.9302185606492821
1.6755160819145563,0.8957172851891548,0.4781182597845569,0.024387370274256845,-0.8740170667704654
1.7278759594743862,0.8371061879922145,0.21244614497734018,0.02413402377599423,-0.8154834827801969
1.780235837034216,0.7762613649645553,-0.05362536777883101,0.023816229768132375,-0.7547739192913167
1.832595714594046,0.7133444386034602,-0.3194209017003598,0.023434914966451857,-0.6920495569528187
1.8849555921538759,0.6485223340320143,-0.5842502067210279,0.022991197031050285,-0.6274767040030601
1.9373154697137056,0.5819672275515978,-0.8474133336406062,0.022486383808068475,-0.5612267454261841
1.9896753472735356,0.5138563547481263,-1.108206402946179,0.0219219728017701,-0.4934759510106006
2.0420352248333655,0.444371685265877,-1.3659264482561493,0.021299651084606425,-0.42440514923706824
2.0943951023931953,0.37369949141102415,-1.619875284480606,0.020621295933629786,-0.35419929395162747
2.146754979953025,0.30202984206849226,-1.869362663688328,0.019888976595749147,-0.2830469549989486
2.199114857512855,0.2295560492167867,-2.113708957440248,0.01910495774874158,-0.2111397596156955
2.251474735072685,0.15647408736278104,-2.352247527447437,0.01827170546595966,-0.13867180415890973
2.3038346126325147,0.08298199963599948,-2.584326884447339,0.017391896851931862,-0.06583904878297561
2.356194490192345,0.009279299232357947,-2.8093126946257,0.016468435060379275,0.007161297930324254
2.4085543677521746,-0.0644336285333252,-3.026589668062251,0.015504472244366185,0.07993810077769138
2.4609142453120043,-0.13795612044061561,-3.2355633487668487,0.014503444299627008,0.15245956474024264
2.5132741228718345,-0.21108782394417644,-3.435661816945173,0.01346912334447424,0.22455694728865067
2.5656340004316642,-0.28362927886946393,-3.6263373087634343,0.012405697229207879,0.2960349760986718
2.617993877991494,-0.35538249126885196,-3.8070677556348147,0.011317890801837663,0.3667003820706896
2.670353755551324,-0.42615149858638424,-3.9773582430854835,0.010211152470232698,0.4363626510566169
2.722713633111154,-0.4957429252812355,-4.136742388079204,0.009091943633599685,0.5048348689148352
2.7750735106709836,-0.563966528016216,-4.284783632991783,0.007968189594407295,0.5719347176106233
2.827433388230814,-0.630635729459126,-4.42107645405118,0.0068499769056273585,0.6374857063647534
2.8797932657906435,-0.6955681396876727,-4.545247481887002,0.005750595265470877,0.7013187349531436
2.9321531433504733,-0.7585860641406337,-4.656956531795176,0.004687945250727351,0.763274009391361
2.9845130209103035,-0.8195169970219875,-4.755897541376915,0.0036859393322032185,0.8232029363541907
3.036872898470133,-0.878194099041292,-4.841799413326803,0.002774409103212027,0.880968508144504
3.089232776029963,-0.9344566583618313,-4.914426761304444,0.001984433525317057,0.9364410918871484
3.141592653589793,-0.9881505336265834,-4.973580557014561,0.0013372892483233987,0.9894878228749069
3.193952531149623,-1.039128577939306,-5.019098676832742,0.0008335263437106146,1.0399621042830167
3.2463124087094526,-1.087251042692289,-5.050856346541356,0.00045368940111381297,1.0877047320934028
3.2986722862692828,-1.1323859601519741,-5.0687664829772725,0.00016979778029042446,1.1325557579322645
3.3510321638291125,-1.1744095037370466,-5.072779931635246,1.7591752652990783e-18,1.1744095037370466
3.4033920413889422,-1.2132063249491591,-5.062885599513875,1.5522131076874518e-18,1.2132063249491591
3.4557519189487724,-1.2486698659424729,-5.039110482730397,1.766859078194543e-18,1.2486698659424729
3.508111796508602,-1.2807026467430382,-5.001519588660762,1.871202657790355e-18,1.2807026467430382
3.560471674068432,-1.3092165261508797,-4.9502157525758035,1.573457580843619e-18,1.3092165261508797
3.612831551628262,-1.3341329353748015,-4.885339348933715,1.6454762307404632e-18,1.3341329353748015
3.665191429188092,-1.3553830834607408,-4.807067897640626,1.4845998263473621e-18,1.3553830834607408
3.7175513067479216,-1.372908133577928,-4.7156155656860195,2.884559395786517e-18,1.372908133577928
3.7699111843077517,-1.3866593492230919,-4.611232564569935,3.094256295573299e-18,1.3866593492230919
3.8222710618675815,-1.3965982093939413,-4.494204443820678,3.2165355291666145e-18,1.3965982093939413
3.874630939427411,-1.402696491775888,-4.364851280587475,2.281159831501291e-18,1.402696491775888
3.9269908169872414,-1.4049363229954743,-4.2235267646727745,3.0666009286989032e-18,1.4049363229954743
3.979350694547071,-1.4033101950493612,-4.070617177266766,2.761806677927461e-18,1.4033101950493612
4.031710572106901,-1.397820947172303,-3.9065402597684353,2.443591700726807e-18,1.397820947172303
4.084070449666731,-1.3884817127533586,-3.73174396593029,3.051226434035729e-18,1.3884817127533586
4.13643032722656,-1.37531583159839,-3.546705085309206,4.322599659534972e-18,1.37531583159839
4.1887902047863905,-1.3583567291041831,-3.351927717211345,2.7570145940651128e-18,1.3583567291041831
4.241150082346221,-1.3376477660920296,-3.1479415595528804,3.4102425261123027e-18,1.3376477660920296
4.29350995990605,-1.3132420665653135,-2.9352999523278904,3.857923632240268e-18,1.3132420665653135
4.34586983746588,-1.2852023358879814,-2.714577574756297,3.478710602914086e-18,1.2852023358879814
4.39822971502571,-1.253600688838881,-2.48636763251563,3.4233027892712865e-18,1.253600688838881
4.45058959258554,-1.2185185146386595,-2.2512782917850904,3.8363730838913574e-18,1.2185185146386595
4.50294947014537,-1.1800464112519988,-2.0099280842405363,3.111331383004277e-18,1.1800464112519988
4.5553093477052,-1.138284218010812,-1.7629403008486597,3.291733134427971e-18,1.138284218010812
4.607669225265029,-1.0933411558881665,-1.5109378429341738,5.779946271906486e-18,1.0933411558881665
4.6600291028248595,-1.0453360436353099,-1.2545438678045084,5.223178557814812e-18,1.0453360436353099
4.71238898038469,-0.9943975028341013,-0.9943975028341021,5.6953877430981765e-18,0.9943975028341013
4.764748857944519,-0.9406640218153854,-0.7311840270544279,4.7317468791319336e-05,0.9407113392841767
4.817108735504349,-0.8842837524611552,-0.4656516252001424,9.77676831880552e-05,0.8843815201443432
4.869468613064179,-0.8254139803054875,-0.19859152389329304,0.00015085940182588283,0.8255648397073134
4.921828490624009,-0.7642203090633901,0.06919635886277045,0.00020616614324290496,0.764426475206633
4.974188368183839,-0.7008756797395694,0.33692354813977204,0.000263318801153319,0.7011389985407227
5.026548245743669,-0.6355593629640908,0.6038177179028608,0.0003220003854285729,0.6358813633495194
5.078908123303498,-0.5684560266334604,0.869121353766215,0.0003819425065877202,0.5688379691400481
5.1312680008633285,-0.49975492368183044,1.1320898675796867,0.0004429241390656892,0.5001978478208962
5.183627878423159,-0.42964919802557966,1.3919906734787058,0.0005047732550651864,0.43015397128064486
5.235987755982988,-0.35833528225972594,1.6481032354009704,0.0005673719686194903,0.35890265422834544
5.288347633542818,-0.28601235505889483,1.8997197940737105,0.0006306659644011917,0.28664302102329603
5.340707511102648,-0.21288183092391919,2.146146515721116,0.0006946791194334275,0.21357651004335262
5.393067388662478,-0.13914686291585543,2.3867048867645826,0.0007595341723155325,0.13990639708817096
5.445427266222308,-0.06501184653534219,2.6207332430471384,0.0008254797762416523,0.06583732631158384
5.497787143782138,0.009318081407468655,2.847588363725547,0.0008929230530102695,-0.008453112598680791
5.550147021341967,0.08363755128948946,3.0666470853756382,0.0009624651450950081,-0.08292599879826293
5.602506898901797,0.1577414765804783,3.277307907143573,0.0010349369237412968,-0.15717976408647844
5.654866776461628,0.23142557590413562,3.4789925670286483,0.0011114361567856337,-0.2310084164750624
5.707226654021457,0.30448689934517736,3.6711475750766454,0.0011933782335112567,-0.3042069818097017
5.759586531581287,0.3767243568158826,3.85324569284878,0.0012825869028668829,-0.3765719429834634
5.811946409141117,0.4479392462287127,4.024787350857848,0.0013814625138566401,-0.4479016014535422
5.864306286700947,0.5179357792636987,4.185301997226689,0.0014932718383305996,-0.5179963147631592
5.916666164260777,0.5865216026123656,4.334349371919344,0.0016226144129528088,-0.5866585530072499
5.969026041820607,0.6535083126925673,4.471520701699526,0.001776141887503962,-0.653692695743141
6.021385919380436,0.718711961944788,4.596439811592572,0.0019636215304609703,-0.7189044763001615
6.073745796940266,0.7819535549328439,4.708764149132539,0.002199362097093275,-0.7821000535005492
6.126105674500097,0.8430595325780592,4.80818571810813,0.0025036296177390668,-0.8430850815580543
6.178465552059926,0.9018622429557661,4.894431918906295,0.0029025681145147617,-0.9016652615701187
6.230825429619756,0.9582003971773192,4.967266292907977,0.0034235434559366515,-0.9576514549129145
