theta,z_plus,lambda_top,edge_margin
0.0,0.0018641761687142207,0.0006476876549054377,-0.0012537720371830674
0.03490658503988659,0.0018768544591186071,0.0009496806986725696,-0.0009647108496284098
0.06981317007977318,0.0018887273588662568,0.0016084250815467842,-0.0003180768244967977
0.10471975511965978,0.001899780180548414,0.0023623621117831433,0.00042458632762376104
0.13962634015954636,0.0019099990250735816,0.0031440733541315347,0.0011958743485564814
0.17453292519943295,0.0019193707954552992,0.003934693890169589,0.0019769356788051835
0.20943951023931956,0.0019278832081311926,0.004726906526582201,0.0027604656542883845
0.24434609527920614,0.0019355248017216,0.005516994877099227,0.0035427595793431953
0.2792526803190927,0.0019422849431110297,0.006302625109191745,0.004321494467218495
0.3141592653589793,0.0019481538307073987,0.00708208317822631,0.005094966270904763
0.3490658503988659,0.0019531224947013134,0.00785396832596728,0.005861783381371941
0.3839724354387525,0.001957182794109256,0.008617054734582841,0.0066207282845914
0.4188790204786391,0.001960327410338777,0.009370223340648177,0.007370689382102624
0.4537856055185257,0.001962549836958563,0.010112425906109068,0.008110625072411334
0.4886921905584123,0.0019638443652888935,0.010842665116908144,0.008839543864313473
0.5235987755982988,0.001964206065345038,0.011559983165273777,0.009556492978621838
0.5585053606381855,0.00196363076156314,0.012263455063367418,0.010260551686573015
0.5934119456780721,0.001962115002609055,0.012952184712979431,0.010950827410318196
0.6283185307179586,0.0019596560244076696,0.013625302639971719,0.011626453495075895
0.6632251157578453,0.0019562517053226896,0.014281964764903314,0.01228658802547417
0.6981317007977318,0.0019519005121504229,0.014921351834380894,0.012930413311987462
0.7330382858376184,0.001946601435245846,0.015542669281528889,0.013557135817578126
0.767944870877505,0.001940353910647763,0.016145147368539996,0.014165986379679278
0.8028514559173916,0.001933157726473575,0.01672804151549378,0.014756220634490731
0.8377580409572782,0.0019250129100581615,0.017290632751505865,0.01532711958324654
0.8726646259971648,0.0019159195912365069,0.017832228244590076,0.01587799026152884
0.9075712110370514,0.0019058778357001177,0.01835216187985684,0.01640816648744272
0.9424777960769379,0.001894887440320733,0.018849794864476396,0.01691700967534925
0.9773843811168246,0.0018829476794706833,0.019324516343799926,0.01740390971073983
1.0122909661567112,0.0018700569872755102,0.019775744017143285,0.017868285890122265
1.0471975511965976,0.001856212554778091,0.020202924744619925,0.018309587938746274
1.0821041362364843,0.0018414098121544052,0.020605535138460973,0.01872729713006348
1.117010721276371,0.0018256417527126594,0.020983082133742892,0.01912092754597598
1.1519173063162575,0.0018088980345607373,0.02133510353453287,0.01949002753928092
1.1868238913561442,0.0017911637625019404,0.02166116853227175,0.019834181494519768
1.2217304763960306,0.0017724177977347193,0.02196087819382931,0.020153012040139896
1.2566370614359172,0.00175263034885375,0.02223386591713812,0.020446182961307294
1.2915436464758039,0.0017317594297401428,0.022479797852681706,0.02071340323434676
1.3264502315156905,0.0017097454549785812,0.022698373289406826,0.020954432925328673
1.361356816555577,0.0016865026165164719,0.022889325003866902,0.021169092335020102
1.3962634015954636,0.0016619043435822072,0.023052419571602083,0.021357277141148233
1.4311699866353502,0.0016357570042459697,0.023187457639925788,0.0215189854955949
1.4660765716752369,0.0016077477273558735,0.02329427416143179,0.021654371479528797
1.5009831567151235,0.001577326683290703,0.02337273858766025,0.021763865370703732
1.53588974175501,0.001543385202592619,0.02342275502247501,0.02184850211583054
1.5707963267948966,0.0015030409094496568,0.023444262334805496,0.021911160607166847
1.6057029118347832,0.0014444627545350357,0.02343723423050433,0.021963882220878594
1.6406094968746698,0.0013565953424525168,0.023401679283161815,0.02201795203386025
1.6755160819145565,0.0012737709387136014,0.023337640923806878,0.022038394566319005
1.710422666954443,0.0012049007465741314,0.023245197389511252,0.022016198628005638
1.7453292519943295,0.0011475653678577012,0.023124461630999966,0.02195394495578511
1.7802358370342162,0.0010988398932423272,0.02297558117946062,0.021854764488353443
1.8151424220741028,0.0010565006793918767,0.022798737972835055,0.02172110727985534
1.8500490071139892,0.001018956352472064,0.02259414814197526,0.021554812662453755
1.8849555921538759,0.0009850671371885176,0.022362061757148895,0.021357293277216607
1.9198621771937625,0.0009540040231320025,0.02210276253549556,0.021129678431900917
1.9547687622336491,0.000925152796635357,0.021816567510163004,0.02087291165759494
1.9896753472735358,0.000898050120228106,0.021503826662000177,0.020587815539367508
2.0245819323134224,0.0008723406748029468,0.021164922514855307,0.020275135026556302
2.059488517353309,0.0008477479625759035,0.020800269695732062,0.01993556677390464
2.0943951023931953,0.0008240540427689322,0.020410314461305555,0.019569779337681243
2.129301687433082,0.0008010851998335793,0.019995534192607398,0.019178427288777146
2.1642082724729685,0.0007787016224598468,0.019556436860078442,0.018762161205169398
2.199114857512855,0.0007567898433375622,0.019093560461684804,0.01832163482148049
2.234021442552742,0.000735257112325908,0.018607472437445302,0.017857510182872877
2.2689280275926285,0.0007140271456732074,0.01809876906457933,0.017370461375992657
2.303834612632515,0.0006930368692515235,0.017568074838646655,0.0168611772320101
2.3387411976724017,0.0006722338895227462,0.01701604184763776,0.01633036328032456
2.3736477827122884,0.0006515745035892833,0.01644334914817675,0.015778743154515683
2.4085543677521746,0.0006310221125024166,0.015850702156104242,0.015207059601351778
2.443460952792061,0.0006105459383665342,0.015238832068153872,0.014616075211020008
2.478367537831948,0.0005901199710107815,0.014608495337909583,0.014006572967478585
2.5132741228718345,0.0005697220875146283,0.013960473238823842,0.01337935670955892
2.548180707911721,0.0005493332998481326,0.01329557156156283,0.012735251595717735
2.5830872929516078,0.0005289370936584624,0.012614620515275413,0.012075104679743782
2.6179938779914944,0.0005085188255111978,0.011918474937583311,0.01139978573556189
2.652900463031381,0.00048806514683321755,0.011208014974969496,0.010710188525199614
2.6878070480712677,0.0004675634199352697,0.010484147489704977,0.010007232801371002
2.722713633111154,0.00044700108345412787,0.009747808611224412,0.009291867506101201
2.7576202181510405,0.0004263649084531255,0.008999968136650686,0.008565075930028499
2.792526803190927,0.0004056400564304789,0.008241637014007389,0.0078278841564483
2.827433388230814,0.0003848087947073217,0.007473880161902466,0.007081375191300998
2.8623399732707004,0.0003638486177114188,0.006697838953671955,0.006326713363606308
2.897246558310587,0.000342729306896522,0.005914772178573094,0.005565188285538642
2.9321531433504737,0.0003214079957826653,0.005126134725266136,0.004798298569567818
2.9670597283903604,0.0002998202049833881,0.004333739746501676,0.00402792313741862
3.001966313430247,0.0002778618841665577,0.0035401251647985067,0.003256706042948618
3.036872898470133,0.0002553483470724338,0.0027494887161044358,0.0024890334020905534
3.07177948351002,0.0002318995669768513,0.001970484620141144,0.0017339470618247556
3.1066860685499065,0.0002064797580683732,0.001226355714199863,0.0010157463609701224
3.141592653589793,0.0003347157341374126,0.0005938012702299596,0.0002523912214097988
3.1764992386296798,0.00016606556599757874,0.00022800334099708382,5.8616463679553516e-05
3.2114058236695664,0.00014790967079149128,9.57213191503388e-05,-5.514654505698231e-05
3.246312408709453,0.000131322056456626,5.5551487487887e-05,-7.839701009787153e-05
3.2812189937493397,0.0001161358439671008,2.5199482918434917e-05,-9.32590779280079e-05
3.3161255787892263,0.0001022077686124904,4.951747880450519e-06,-9.93001761042897e-05
3.351032163829113,8.941428911361844e-05,-4.047463894807866e-09,-9.120662235978561e-05
3.385938748868999,7.76484548751745e-05,-1.1027170801566144e-08,-7.921245114347955e-05
3.420845333908886,6.681736717648531e-05,-1.6718665922428403e-08,-6.817043318593744e-05
3.4557519189487724,5.684011002238644e-05,-2.193875560431892e-08,-5.799885097843849e-05
3.490658503988659,4.764605582176893e-05,-2.6878991463256443e-08,-4.8625855929667566e-05
3.5255650890285457,3.9173473031685774e-05,-3.161809751282701e-08,-3.998856058983232e-05
3.5604716740684323,3.13683794908766e-05,-3.6196169051073684e-08,-3.20319432497452e-05
3.595378259108319,2.4183597846192655e-05,-4.063582114007029e-08,-2.470790562425658e-05
3.6302848441482056,1.7577979309121258e-05,-4.495041367848888e-08,-1.797448930898217e-05
3.6651914291880923,1.1515769741868344e-05,-4.914789182257331e-08,-1.1795233028528285e-05
3.7000980142279785,5.966098342051898e-06,-5.323280936302428e-08,-6.13865311825596e-06
3.735004599267865,9.025744189971551e-07,-5.720749047068287e-08,-9.77833397847781e-07
3.7699111843077517,-3.6970177046521258e-06,-6.107274120802787e-08,3.635944963444098e-06
3.8048177693476384,-7.850931459384102e-06,-6.482830787422926e-08,7.786103151509872e-06
3.839724354387525,-1.1573580149934605e-05,-6.847318456855272e-08,1.1505106965366053e-05
3.8746309394274117,-1.4875565754944841e-05,-7.200582668648883e-08,1.4803559928258353e-05
3.9095375244672983,-1.776360672713912e-05,-7.542430342429175e-08,1.7688182423714827e-05
3.944444109507185,-2.0240350975659403e-05,-7.872640943233624e-08,2.0161624566227067e-05
3.9793506945470716,-2.2304052237137594e-05,-8.19097483157736e-08,2.222214248882182e-05
4.014257279586958,-2.3948077212834554e-05,-8.497179624677892e-08,2.3863105416587774e-05
4.049163864626845,-2.5160195618383986e-05,-8.790995119855255e-08,2.5072285667185433e-05
4.084070449666731,-2.592158324313392e-05,-9.07215715647504e-08,2.5830861671569168e-05
4.118977034706618,-2.62054353735781e-05,-9.340400677275197e-08,2.6112031366805346e-05
4.153883619746504,-2.5975038133768473e-05,-9.595462174133905e-08,2.5879083512027135e-05
4.1887902047863905,-2.518106770126223e-05,-9.837081649306681e-08,2.5082696884769165e-05
4.223696789826278,-2.3757763366671978e-05,-1.0065004186894469e-07,2.3657113324803033e-05
4.258603374866164,-2.1617416786866125e-05,-1.0278981202251952e-07,2.1514626974843605e-05
4.293509959906051,-1.864227515041812e-05,-1.0478771417232927e-07,1.853748743624579e-05
4.328416544945937,-1.4672352583900398e-05,-1.0664141594300766e-07,1.456571116795739e-05
4.363323129985824,-9.486546275189736e-06,-1.0834867050332084e-07,9.378197604686416e-06
4.39822971502571,-2.7723659691780756e-06,-1.0990731960610803e-07,2.6624586495719676e-06
4.4331363000655974,5.924594802186395e-06,-1.1131529454488785e-07,-6.154401992775011e-06
4.468042885105484,1.7289212505025532e-05,-1.1257061494851428e-07,-1.774756737007456e-05
4.50294947014537,3.240154437925374e-05,-1.1367138524044324e-07,-3.316324665207926e-05
4.537856055185257,5.306684606640794e-05,-1.1461578847720978e-07,-5.424279877621331e-05
4.572762640225143,8.254327472058604e-05,-1.1540207714541599e-07,-8.430954229214318e-05
4.60766922526503,0.00012736681299487199,-1.160285603234053e-07,-0.00013003017781509284
4.642575810304916,0.00020285123784856993,-1.1649358638744092e-07,-0.00020702475619192875
4.6774823953448035,0.00035525925180363124,-1.1679552012567627e-07,-0.0003624812323598295
4.71238898038469,0.0007325728634349827,-1.1693271269321024e-07,-0.0007473412534163756
4.747295565424577,0.0007841531473792365,-1.1690346221851161e-07,-0.0007999531137890398
4.782202150464463,0.0008226134463591176,-1.1670596197316076e-07,-0.000839182421248273
4.817108735504349,0.0008569714125816713,-1.1633823168168985e-07,-0.0008742271790649864
4.852015320544236,0.0008892299274741687,-1.1579802553111277e-07,-0.0009071303240491832
4.886921905584122,0.0009202229713706321,-1.1508270730509119e-07,-0.0009387425135053498
4.9218284906240095,0.0009503827582897464,-1.1418907810951127e-07,-0.0009695046025336507
4.956735075663896,0.0009799603309061902,-1.1311313403817937e-07,-0.0009996726506583521
4.991641660703783,0.0010091113013374153,-1.118497174819469e-07,-0.0010294053770816458
5.026548245743669,0.001037935572156588,-1.1039200197379183e-07,-0.0010588046756016935
5.061454830783556,0.0010664980386899448,-1.0873070726728805e-07,-0.001087936730171011
5.096361415823442,0.001094840342455527,-1.0685285925553392e-07,-0.001116844002163893
5.1312680008633285,0.0011229879952084907,-1.0473974472439824e-07,-0.0011455524948573849
5.1661745859032155,0.0011509549274741834,-1.0236335908791242e-07,-0.001174076389382755
5.201081170943102,0.0011787465190269953,-9.967983287188028e-08,-0.001202421129240407
5.235987755982989,0.0012063616914551316,-9.661625835488266e-08,-0.0012305855415425892
5.270894341022875,0.0012337943980774261,-9.304140206980196e-08,-0.0012585633274410444
5.305800926062762,0.001261034713566056,-8.869057886215799e-08,-0.0012863440984162392
5.340707511102648,0.001288069649993999,-8.292614631644813e-08,-0.0013139139691401955
5.375614096142535,0.00131488378121651,-7.360022666678497e-08,-0.001341255057067507
5.410520681182422,0.0013414597300098001,-4.460870250392876e-08,-0.0013683335333125
5.445427266222308,0.0013677785550113989,1.2807269321171232e-07,-0.0013950060534184152
5.480333851262195,0.0013938200632212716,7.164545298534094e-07,-0.0014209800099558435
5.515240436302081,0.001419563066318638,2.1678629716966156e-06,-0.001445786464673314
5.550147021341968,0.001444985593952776,4.89919699292992e-06,-0.0014689861088389017
5.585053606381854,0.0014700650736379666,9.126198699811044e-06,-0.001490340176410915
5.619960191421741,0.001494778484398019,1.5084324175566162e-05,-0.0015095897299104133
5.654866776461628,0.0015191024895281665,2.3027137314543926e-05,-0.001526457402004186
5.689773361501515,0.001543013552552155,3.320344186965854e-05,-0.0015406703817335396
5.724679946541401,0.0015664880395037067,4.5870191792258615e-05,-0.001551947608501522
5.759586531581287,0.0015895023099555823,6.12902442974826e-05,-0.0015600021118572114
5.794493116621174,0.001612032798688017,7.970657958407077e-05,-0.0015645668750777066
5.82939970166106,0.0016340560894841658,0.000101307915842399,-0.00156542929543145
5.8643062867009474,0.001655548982229756,0.00012619927751868782,-0.0015624606843556634
5.899212871740834,0.0016764885542534878,0.00015438534671516569,-0.001555632978623392
5.934119456780721,0.0016968522166565855,0.00018576966634220634,-0.0015450195946475108
5.969026041820607,0.0017166177662314534,0.00022016865188888266,-0.0015307814696671998
6.003932626860494,0.0017357634334514227,0.0002573360873254209,-0.0015131426147950303
6.03883921190038,0.001754267926918914,0.00029699245197182086,-0.0014923608334854713
6.073745796940266,0.0017721104745828577,0.00033885476328989747,-0.0014686979207846175
6.1086523819801535,0.0017892708619737692,0.0003826665532249403,-0.0014423897259883043
6.14355896702004,0.0018057294676534317,0.00042823518105446727,-0.001413608875952033
6.178465552059927,0.001821467296033302,0.00047550373072024696,-0.001382392911233721
6.213372137099813,0.0018364660076795377,0.0005247682358799645,-0.001348427091953164
6.2482787221397,0.001850707947191593,0.0005777004438704688,-0.001310021662264956
