theta,z_plus,lambda_top,edge_margin
0.0,0.0021505086242866525,0.000686738309387627,-0.0015067804873847587
0.03490658503988659,0.002166980650162211,0.0009666099036157877,-0.001243710359549668
0.06981317007977318,0.0021824550154746236,0.0018840230959309514,-0.00034208101985316484
0.10471975511965978,0.002196912656056775,0.0030516944679942672,0.0008108435588163568
0.13962634015954636,0.0022103355325293,0.004282529629930802,0.002027987386750916
0.17453292519943295,0.0022227066490112745,0.005531884619808074,0.0032647238378165737
0.20943951023931956,0.002234010068985757,0.006785281027043082,0.00450659075667761
0.24434609527920614,0.0022442309282185774,0.008036164915947969,0.00574704936916502
0.2792526803190927,0.0022533554446024407,0.00928068469807217,0.006982262144577681
0.3141592653589793,0.0022613709247685863,0.010516104668816955,0.008209506325552996
0.3490658503988659,0.0022682657672738675,0.01174022045446076,0.009426589371841414
0.3839724354387525,0.002274029462130642,0.012951111305283872,0.010631601253910617
0.4188790204786391,0.002278652586398689,0.014147023722393834,0.011822798084267172
0.4537856055185257,0.0022821267955001534,0.015326312415215534,0.012998543083805377
0.4886921905584123,0.002284444809847528,0.016487408603200998,0.01415727489715652
0.5235987755982988,0.0022856003962873047,0.01762880232013215,0.015297489915919098
0.5585053606381855,0.002285588343753317,0.01874903231721172,0.016417732206583338
0.5934119456780721,0.0022844044323878992,0.019846680291922103,0.017516587770886445
0.6283185307179586,0.002282045395217379,0.0209203676788485,0.018592681375726772
0.6632251157578453,0.0022785088712500186,0.021968754007911727,0.01964467495923671
0.6981317007977318,0.002273793348584328,0.02299053624672149,0.020671267031165473
0.7330382858376184,0.0022678980957529125,0.02398444877292532,0.02167119271525735
0.767944870877505,0.0022608230790531073,0.024949263754833632,0.022643224214199464
0.8028514559173916,0.0022525688629904932,0.025883791797591912,0.02358617155734161
0.8377580409572782,0.002243136490127867,0.02678688276065623,0.024498883540725807
0.8726646259971648,0.002232527335508429,0.02765742668286563,0.025380248800647032
0.9075712110370514,0.00222074292928801,0.028494354771087742,0.026229196983213972
0.9424777960769379,0.0022077847390893886,0.029296640421374417,0.02704469998750324
0.9773843811168246,0.0021936539006140177,0.030063300250266482,0.027825773271640184
1.0122909661567112,0.0021783508808004143,0.03079339511983801,0.028571477221421587
1.0471975511965976,0.002161875051656972,0.031486031144212306,0.029280918591522195
1.0821041362364843,0.0021442241437808914,0.03214036066821037,0.02995325204155386
1.117010721276371,0.002125393534793944,0.03275558321089955,0.03058768180540973
1.1519173063162575,0.002105375306583783,0.03333094636834899,0.03118346355563353
1.1868238913561442,0.0020841569712775117,0.033865746671040045,0.03173990656033698
1.2217304763960306,0.0020617197101343568,0.03435933039224359,0.03225637628790655
1.2566370614359172,0.002038035874764712,0.03481109430433657,0.032732297712076565
1.2915436464758039,0.002013065332171772,0.03522048638054902,0.03316715974173381
1.3264502315156905,0.0019867499229742312,0.03558700644004449,0.033560521518610775
1.361356816555577,0.0019590046876900324,0.03591020673457196,0.033912021953128126
1.3962634015954636,0.0019297032191910608,0.03618969247520401,0.03422139519162913
1.4311699866353502,0.0018986515161457565,0.03642512229791263,0.034488497751443956
1.4660765716752369,0.0018655370486051074,0.03661620866693546,0.034713360877358254
1.5009831567151235,0.0018298169502014734,0.03676271821506523,0.034896304925859725
1.53588974175501,0.0017904259574982914,0.03686447202015702,0.03503823754350876
1.5707963267948966,0.0017447716610316149,0.036921345817294046,0.035141678723041796
1.6057029118347832,0.0016838184557056652,0.03693327014619345,0.03521577532137367
1.6406094968746698,0.0015956924701737607,0.03690023043356315,0.03527262411398591
1.6755160819145565,0.0015074819847408875,0.036822267010248044,0.03528463538581234
1.710422666954443,0.0014317427537783056,0.03669947506312858,0.03523909745427471
1.7453292519943295,0.0013674753021436154,0.03653200452185816,0.035137179713671675
1.7802358370342162,0.0013121184846234847,0.03632005988065044,0.03498169902633449
1.8151424220741028,0.0012635088541843478,0.036063899955455406,0.03477512092418737
1.8500490071139892,0.0012200272330153273,0.03576383757699609,0.03451940979932046
1.8849555921538759,0.0011804841945912499,0.035420239220278135,0.03421614534179506
1.9198621771937625,0.001144000337466181,0.035033524571335455,0.03386664422711995
1.9547687622336491,0.0011099166626807077,0.034604166032140005,0.03347205103620568
1.9896753472735358,0.001077731955389855,0.03413268816478979,0.03303340157029214
2.0245819323134224,0.0010470595407935598,0.0336196670762965,0.03255166634468707
2.059488517353309,0.0010175972179440015,0.03306572974554302,0.032027780583240135
2.0943951023931953,0.0009891060757064795,0.03247155329426751,0.031462665097046906
2.129301687433082,0.0009613953342572105,0.03183786420428605,0.03085724096334369
2.1642082724729685,0.0009343113252087324,0.031165437483600837,0.03021243993188793
2.199114857512855,0.0009077293558121377,0.0304550957845914,0.02952921184166302
2.234021442552742,0.0008815476130782037,0.029707708478194025,0.028808529912854257
2.2689280275926285,0.0008556825317234837,0.028924190688900002,0.028051394506542048
2.303834612632515,0.0008300652269198298,0.028105502296634964,0.027258835765176737
2.3387411976724017,0.0008046387113282576,0.027252646913247667,0.026431915427692843
2.3736477827122884,0.0007793556962659695,0.026366670843626663,0.025571728033435374
2.4085543677521746,0.0007541768320473218,0.02544866204466166,0.024679401675973392
2.443460952792061,0.0007290692808481848,0.02449974909980661,0.02375609843334146
2.478367537831948,0.0007040055422225782,0.023521100233556656,0.022803014580489625
2.5132741228718345,0.000678962470124082,0.022513922399778175,0.02182138068025161
2.548180707911721,0.0006539204331901012,0.021479460492242496,0.02081246165038859
2.5830872929516078,0.0006288625785206862,0.020418996747714212,0.01977755691762311
2.6179938779914944,0.0006037741639681783,0.019333850446277424,0.018718000799029882
2.652900463031381,0.0005786419252182033,0.018225378068441656,0.01763516330471909
2.6878070480712677,0.0005534534412052332,0.01709497415857271,0.01653045164854337
2.722713633111154,0.0005281964532497901,0.015944073296251585,0.015405312913936799
2.7576202181510405,0.0005028580767056982,0.014774153842684915,0.014261238604445102
2.792526803190927,0.000477423812758587,0.013586744610621444,0.013099772321607684
2.827433388230814,0.0004518762098180291,0.012383436516986625,0.011922522782972235
2.8623399732707004,0.0004261929119607383,0.011165903088376034,0.010731186318176081
2.897246558310587,0.0004003436052976364,0.009935937505688032,0.009527587028284443
2.9321531433504737,0.0003742848822183744,0.00869552249025798,0.00831375191039524
2.9670597283903604,0.00034795088065446724,0.0074469704771961374,0.007092060578928581
3.001966313430247,0.00032123445754428907,0.00619322900872891,0.0058655698620337345
3.036872898470133,0.00029394395129879686,0.004938624099522473,0.0046388012691977
3.07177948351002,0.00026568188113699657,0.003690963278454867,0.0034199677596951305
3.1066860685499065,0.0002353559464044568,0.0024688411761736914,0.0022287781108411456
3.141592653589793,0.000380901060121807,0.0013340090117282964,0.0009454899304040533
3.1764992386296798,0.00018131980028739467,0.0005098892582411163,0.0003249430619479738
3.2114058236695664,0.0001581793238169574,0.00018265877876581874,2.131586847252219e-05
3.246312408709453,0.0001372522815168517,7.582108504039549e-05,-6.417624210679324e-05
3.2812189937493397,0.00011826899354897215,3.001708759093061e-05,-9.061728582902099e-05
3.3161255787892263,0.00010100281668213833,7.592738715634412e-06,-9.543013430014669e-05
3.351032163829113,8.526205508125565e-05,-5.018458373307683e-09,-8.697231464125407e-05
3.385938748868999,7.088364574856822e-05,-1.4778784482138661e-08,-7.231609744802171e-05
3.420845333908886,5.772818352904922e-05,-2.3506970580736096e-08,-5.8906254170210935e-05
3.4557519189487724,4.567596895971296e-05,-3.17530013121485e-08,-4.662124134021937e-05
3.490658503988659,3.4623845712929304e-05,-3.966856273197759e-08,-3.5355991189919864e-05
3.5255650890285457,2.4482654062936804e-05,-4.730904369312263e-08,-2.5019616187888663e-05
3.5604716740684323,1.5175170042054113e-05,-5.455337545900239e-08,-1.5533226818354197e-05
3.595378259108319,6.634431690006198e-06,-6.153731467682123e-08,-6.828657638483143e-06
3.6302848441482056,-1.1976225893288526e-06,-6.83197127907841e-08,1.1293028765380686e-06
3.6651914291880923,-8.371260723426591e-06,-7.491314696938402e-08,8.296347576457208e-06
3.7000980142279785,-1.4929852184345706e-05,-8.132427754905394e-08,1.4848527906796652e-05
3.735004599267865,-2.0910584430159627e-05,-8.755641174781781e-08,2.082302801841181e-05
3.7699111843077517,-2.636296834261228e-05,-9.361060856692923e-08,2.626935773404535e-05
3.8048177693476384,-3.150142236242472e-05,-9.948634632798131e-08,3.1401936016096736e-05
3.839724354387525,-3.6319571629027074e-05,-1.0518196517317188e-07,3.62143896638539e-05
3.8746309394274117,-4.075319157526607e-05,-1.1069497426027001e-07,4.0642496601005795e-05
3.9095375244672983,-4.474922932117656e-05,-1.160222716953623e-07,4.4633207049481195e-05
3.944444109507185,-4.826162790286787e-05,-1.2116030560024966e-07,4.814046759726762e-05
3.9793506945470716,-5.124875976647696e-05,-1.2610519404081015e-07,5.1122654572436153e-05
4.014257279586958,-5.3671730088882635e-05,-1.308528152659501e-07,5.3540877273616685e-05
4.049163864626845,-5.549317174050199e-05,-1.3539887584321214e-07,5.535777286465878e-05
4.084070449666731,-5.667632856192718e-05,-1.3973896176246766e-07,5.6536589600164714e-05
4.118977034706618,-5.718431751459049e-05,-1.438685759122069e-07,5.704044893867828e-05
4.153883619746504,-5.697952005678939e-05,-1.477831641409066e-07,5.683173689264848e-05
4.1887902047863905,-5.602310484837671e-05,-1.514781312451609e-07,5.587162671713155e-05
4.223696789826278,-5.42747498390676e-05,-1.5494884752193638e-07,5.411980099154567e-05
4.258603374866164,-5.169274346267957e-05,-1.5819064591216152e-07,5.1534552816767405e-05
4.293509959906051,-4.823486287785189e-05,-1.6119880916523292e-07,4.807366406868666e-05
4.328416544945937,-4.386088659632083e-05,-1.639685458251579e-07,4.3696918050495674e-05
4.363323129985824,-3.8536005086078936e-05,-1.6649495309213648e-07,3.83695101329868e-05
4.39822971502571,-3.1820793521575275e-05,-1.6877296369744182e-07,3.1652020557877836e-05
4.4331363000655974,-2.304943575605262e-05,-1.7079727275223736e-07,2.2878638483300383e-05
4.468042885105484,-1.1508710697084986e-05,-1.7256223895517928e-07,1.1336148458129807e-05
4.50294947014537,3.932221756186932e-06,-1.7406175245533787e-07,-4.184927943766008e-06
4.537856055185257,2.5176106623736703e-05,-1.752890588471381e-07,-2.5854917815058574e-05
4.572762640225143,5.568708140203035e-05,-1.7623652499951943e-07,-5.697705955507048e-05
4.60766922526503,0.00010249952315094071,-1.7689532742769766e-07,-0.00010472640894138722
4.642575810304916,0.00018240492852852997,-1.7725503745199654e-07,-0.00018623028213655258
4.6774823953448035,0.0003478328528632946,-1.7730306931907596e-07,-0.00035496681298987954
4.71238898038469,0.0007502344555176605,-1.7702394794688183e-07,-0.0007654161685759606
4.747295565424577,0.000807054179043083,-1.7639834277541288e-07,-0.00082337166096672
4.782202150464463,0.0008516982366396983,-1.7540180491447175e-07,-0.0008689076031774067
4.817108735504349,0.0008922568241565442,-1.7400313873981194e-07,-0.0009102759637784149
4.852015320544236,0.0009307270765709974,-1.7216233763767052e-07,-0.0009495137804400551
4.886921905584122,0.00096796008687088,-1.698280121654196e-07,-0.000987489116620463
4.9218284906240095,0.0010044000693205737,-1.669342154324713e-07,-0.0010246550049224177
4.956735075663896,0.0010403046244569308,-1.6339646542210715e-07,-0.0010612741134114916
4.991641660703783,0.001075831997090456,-1.5910645253887505e-07,-0.0010975077434848038
5.026548245743669,0.001111081995321968,-1.5392418492757324e-07,-0.0011334575594133347
5.061454830783556,0.0011461175005862423,-1.4766481689564442e-07,-0.0011691875154148626
5.096361415823442,0.001180976758363877,-1.4007449921458383e-07,-0.001204736368030369
5.1312680008633285,0.0012156808658238308,-1.3078368336486074e-07,-0.0012401252668236722
5.1661745859032155,0.001250238572728566,-1.192123278228543e-07,-0.0012753625565109603
5.201081170943102,0.0012846494918656306,-1.0436195758918126e-07,-0.0013104468436605325
5.235987755982989,0.0013189063233779847,-8.42966643830007e-08,-0.0013453687465099272
5.270894341022875,0.0013529964436596429,-5.455731156794122e-08,-0.0013801109298444037
5.305800926062762,0.001386903071167668,-1.5094690666793727e-09,-0.001414642642060088
5.340707511102648,0.0014206061424999103,1.4281362263804975e-07,-0.0014488754517272705
5.375614096142535,0.0014540829851365357,8.374809981805934e-07,-0.0014823271638410857
5.410520681182422,0.001487308844365879,2.941562013613688e-06,-0.0015141134592395829
5.445427266222308,0.0015202573036141073,6.407868136340474e-06,-0.001544254581550049
5.480333851262195,0.0015529006254896569,1.1057304303489917e-05,-0.0015729013336959602
5.515240436302081,0.0015852100329208241,1.6870579281795627e-05,-0.001600043654297445
5.550147021341968,0.001617155944368777,2.392808789589788e-05,-0.0016255709753602548
5.585053606381854,0.0016487081733576124,3.2392100154017015e-05,-0.0016492902366707475
5.619960191421741,0.0016798360999254608,4.249554468029692e-05,-0.001670937277243673
5.654866776461628,0.0017105088197115104,5.452227539750217e-05,-0.0016901967207082385
5.689773361501515,0.0017406952750216218,6.877447917651519e-05,-0.001706734701345539
5.724679946541401,0.0017703643712051887,8.55307154718579e-05,-0.0017202409431574346
5.759586531581287,0.0017994850809237232,0.00010500490248356433,-0.0017304698800586333
5.794493116621174,0.0018280265383249716,0.00012731782752847394,-0.001737269241562997
5.82939970166106,0.0018559581247052398,0.000152487391838869,-0.0017405898953604755
5.8643062867009474,0.0018832495469112238,0.00018043628718602013,-0.0017404782506634281
5.899212871740834,0.00190987090947568,0.00021101113113235206,-0.0017370571965328416
5.934119456780721,0.001935792781280311,0.00024400642987234696,-0.0017305022070335703
5.969026041820607,0.0019609862573806472,0.0002791884355156724,-0.0017210175470125878
6.003932626860494,0.00198542301650166,0.00031631628298394484,-0.001708815193847748
6.03883921190038,0.002009075374611723,0.00035515997489769796,-0.0016940969072062597
6.073745796940266,0.002031916334900836,0.0003955168752927405,-0.0016770377863061124
6.1086523819801535,0.0020539196344223506,0.0004372312191398285,-0.001657766807970969
6.14355896702004,0.002075059787602562,0.00048022760456090834,-0.0016363333787937045
6.178465552059927,0.002095312126776824,0.0005245903773054752,-0.0016126279920068852
6.213372137099813,0.0021146528398723217,0.0005708094026414395,-0.0015861364940283288
6.2482787221397,0.002133059005324656,0.0006208449182653149,-0.0015548752671658342
