theta,z_plus,lambda_top,edge_margin
0.0,0.001980721782511731,0.0004916461343386208,-0.0015286900838233448
0.03490658503988659,0.001996060815021774,0.0009897321653336327,-0.0010462498659885768
0.06981317007977318,0.0020104746224142924,0.0019199233281917256,-0.00013076078667085276
0.10471975511965978,0.002023945452364594,0.0030334474127639713,0.0009690230513520856
0.13962634015954636,0.002036456506764368,0.004199986105586896,0.0021228004686872407
0.17453292519943295,0.002047991959205381,0.005383005903395842,0.0032940541050063537
0.20943951023931956,0.0020585369698418424,0.006569652840361375,0.0044699451311226955
0.24434609527920614,0.002068077697538152,0.007753856660609163,0.005644417409120248
0.2792526803190927,0.0020766013091846323,0.008931975347066193,0.006813842011697869
0.3141592653589793,0.0020840959860366636,0.01010140044845361,0.007975622542696213
0.3490658503988659,0.002090550926901172,0.011260025859570286,0.009127663914131091
0.3839724354387525,0.0020959563479575017,0.012406017525382975,0.010268142050466323
0.4188790204786391,0.002100303478955635,0.013537703423315662,0.011395393874780915
0.4537856055185257,0.0021035845554815604,0.014653517014445689,0.012507860767854498
0.4886921905584123,0.002105792806914694,0.01575196655462196,0.01360405789156897
0.5235987755982988,0.002106922439622411,0.0168316177947549,0.01468255690634004
0.5585053606381855,0.0021069686148374985,0.017891084012368257,0.015741976025234007
0.5934119456780721,0.0021059274205401136,0.018929020247894914,0.016780974278943997
0.6283185307179586,0.002103795836509012,0.01994412004721649,0.017798248293977297
0.6632251157578453,0.0021005716915072155,0.020935113746192717,0.01879253062085536
0.6981317007977318,0.00209625361131121,0.021900767728387616,0.019762589044850183
0.7330382858376184,0.002090840955961257,0.02283988430895515,0.02070722653387467
0.767944870877505,0.0020843337441773524,0.023751302026475136,0.021625281607414237
0.8028514559173916,0.0020767325623141215,0.024633896201755365,0.02251562898819496
0.8377580409572782,0.002068038454466372,0.025486579670219216,0.023377180446663516
0.8726646259971648,0.0020582527893103194,0.02630830362459003,0.024208885779493504
0.9075712110370514,0.002047377097864266,0.027098058524046176,0.025009733884224623
0.9424777960769379,0.0020354128744144847,0.027854875038872663,0.02577875390696989
0.9773843811168246,0.002022361330132613,0.028577825008287913,0.02651501645155265
1.0122909661567112,0.002008223085033699,0.0292660223950562,0.027217634848321827
1.0471975511965976,0.0019929977782987642,0.029918624224630798,0.02788576649076606
1.0821041362364843,0.0019766835686648577,0.03053483149950436,0.028518614259466203
1.117010721276371,0.0019592764840093684,0.03111389008155269,0.029115428067863134
1.1519173063162575,0.0019407695597844874,0.03165509153670064,0.029675506585720463
1.1868238913561442,0.0019211516749826345,0.032157773937386586,0.0301981992289043
1.2217304763960306,0.0019004059434943577,0.032621322619165845,0.0306829085568016
1.2566370614359172,0.0018785074323440954,0.033045170888459215,0.03112909330746824
1.2915436464758039,0.0018554198253430347,0.03342880067897053,0.03153627245712063
1.3264502315156905,0.0018310903665540472,0.033771743154711556,0.03190403098082643
1.361356816555577,0.0018054418590173656,0.03407357925790497,0.03223202856170725
1.3962634015954636,0.0017783593157391093,0.034333940200315605,0.03252001369826171
1.4311699866353502,0.0017496661522497948,0.034552507896792255,0.032767848421497464
1.4660765716752369,0.001719077866171887,0.03472901534000376,0.032975555916508435
1.5009831567151235,0.0016861005444193623,0.03486324691553137,0.033143424360223626
1.53588974175501,0.0016497665476044813,0.03495503865663769,0.03327227677808112
1.5707963267948966,0.0016077305637443317,0.03500427843817812,0.033364393263158904
1.6057029118347832,0.0015518972583454457,0.0350109061092571,0.033427970905744744
1.6406094968746698,0.001471450154235367,0.034974913564360166,0.03347403440704009
1.6755160819145565,0.0013906531221140324,0.03489634475281658,0.03347787856826027
1.710422666954443,0.0013211400324862903,0.0347752956265708,0.033427732793434785
1.7453292519943295,0.0012620833439655145,0.03461191402636101,0.03332458901551619
1.7802358370342162,0.0012111686875249277,0.034406399506527435,0.03317100744525201
1.8151424220741028,0.0011664264288235016,0.03415900309879817,0.0329692481413982
1.8500490071139892,0.0011263781864708459,0.03387002701553385,0.03272112126533359
1.8849555921538759,0.001089936284071689,0.033539824293051954,0.03242808928329883
1.9198621771937625,0.0010562957823777351,0.03316879837580397,0.03209137667777868
1.9547687622336491,0.0010248531021437397,0.03275740264234665,0.03171205247816004
1.9896753472735358,0.0009951489838536957,0.0323061398742371,0.031291087910706325
2.0245819323134224,0.0009668290212543847,0.03181556166919891,0.030829396067519436
2.059488517353309,0.0009396161868927725,0.0312862678001607,0.030327859289530072
2.0943951023931953,0.0009132914564243637,0.030718905522073264,0.029787348236520413
2.129301687433082,0.0008876799343546729,0.03011416882878421,0.029208735295742444
2.1642082724729685,0.0008626407620981312,0.02947279766271273,0.028592904085372635
2.199114857512855,0.0008380596637709803,0.028795577080655797,0.0279407562236094
2.234021442552742,0.0008138433587657379,0.028083336379818635,0.02725321615387758
2.2689280275926285,0.0007899153145587476,0.02733694818916159,0.026531234568311666
2.303834612632515,0.0007662124748199114,0.02655732753249236,0.02577579080817605
2.3387411976724017,0.000742682706144623,0.02574543087154474,0.024987894511277222
2.3736477827122884,0.000719282780194035,0.024902255139785424,0.02416858670398751
2.4085543677521746,0.000695976758511965,0.024028836781190666,0.02331894048750846
2.443460952792061,0.0006727346823454731,0.023126250813216447,0.022440061437224063
2.478367537831948,0.0006495314943173298,0.02219560994039401,0.021533087816190333
2.5132741228718345,0.000626346135954613,0.02123806375559543,0.020599190696921725
2.548180707911721,0.0006031607769140892,0.02025479808193606,0.019639574089483688
2.5830872929516078,0.000579960139530492,0.0192470345326477,0.0186554751903266
2.6179938779914944,0.0005567308867302491,0.018216030404378056,0.017648164899913204
2.652900463031381,0.0005334610425593194,0.017163079080451917,0.01661894881704141
2.6878070480712677,0.000510139412136598,0.016089511221138407,0.015569169020759078
2.722713633111154,0.00048675496047965886,0.01499669718832592,0.014500207128636668
2.7576202181510405,0.00046329609461306324,0.01388605145054899,0.013413489434043666
2.792526803190927,0.00043974976511516835,0.012759040257664406,0.012310495497246934
2.827433388230814,0.00041610025042624986,0.01161719490718132,0.011192772651746546
2.8623399732707004,0.00039232738552857433,0.010462134987976155,0.01006196105473701
2.897246558310587,0.0003684037907264723,0.009295610360661706,0.008919838494120704
2.9321531433504737,0.0003442902100290484,0.00811958057181758,0.007768404557587951
2.9670597283903604,0.0003199270113385901,0.006936374962327609,0.006610049410762247
3.001966313430247,0.0002952170829099439,0.0057490440441023034,0.005447922619534161
3.036872898470133,0.0002699865313030656,0.004562222604898018,0.004286836342968892
3.07177948351002,0.00024387435953129565,0.0033845952449884946,0.003135843398266573
3.1066860685499065,0.00021588747609689384,0.0022374945271319956,0.002017289301513164
3.141592653589793,0.00034925997012112133,0.0011914991827569402,0.0008352540132333965
3.1764992386296798,0.0001677861238697157,0.0004668914144765197,0.0002957495681294097
3.2114058236695664,0.00014677205535174972,0.00017584320425552248,2.613570779673777e-05
3.246312408709453,0.00012763211620584017,7.158381935127726e-05,-5.860093917867972e-05
3.2812189937493397,0.00011015723338848219,2.9866695544790913e-05,-8.249368251146092e-05
3.3161255787892263,9.416911578806575e-05,7.166777144255568e-06,-8.88857209595715e-05
3.351032163829113,7.951494416119592e-05,-4.73577977715523e-09,-8.1109978824197e-05
3.385938748868999,6.606313780559247e-05,-1.3553768086440102e-08,-6.739795432979076e-05
3.420845333908886,5.369995443809368e-05,-2.115719104202577e-08,-5.479511071789758e-05
3.4557519189487724,4.2326741249716204e-05,-2.8258893155158745e-08,-4.320153496786568e-05
3.490658503988659,3.185769980103949e-05,-3.504521532012156e-08,-3.25298990123804e-05
3.5255650890285457,2.221806028985592e-05,-4.159528858693403e-08,-2.270401678423997e-05
3.5604716740684323,1.3342585186947262e-05,-4.794934477406335e-08,-1.3657386235460271e-05
3.595378259108319,5.174340669915628e-06,-5.412961106499161e-08,-5.331957094378932e-06
3.6302848441482056,-2.3363116363607025e-06,-6.014869932972068e-08,2.276162937030982e-06
3.6651914291880923,-9.232539181056339e-06,-6.601357602899401e-08,9.166525605027345e-06
3.7000980142279785,-1.5551707194707912e-05,-7.172766478766826e-08,1.5479979529920244e-05
3.735004599267865,-2.1325912483186284e-05,-7.729205623272662e-08,2.1248620426953557e-05
3.7699111843077517,-2.6582911461476827e-05,-8.27062501167968e-08,2.650020521136003e-05
3.8048177693476384,-3.1469980426142825e-05,-8.79686343621554e-08,3.138201179178067e-05
3.839724354387525,-3.604328431410543e-05,-9.307680745071398e-08,3.5950207506654715e-05
3.8746309394274117,-4.024612514526397e-05,-9.802780304015513e-08,4.0148097342223816e-05
3.9095375244672983,-4.403104972387233e-05,-1.0281825108238274e-07,4.392823147278995e-05
3.944444109507185,-4.7356403611042976e-05,-1.0744449626311133e-07,4.7248959114779865e-05
3.9793506945470716,-5.018417884868254e-05,-1.1190268685721089e-07,5.007227616182533e-05
4.014257279586958,-5.247856482294939e-05,-1.1618884249776781e-07,5.2362375980451624e-05
4.049163864626845,-5.4204895639562845e-05,-1.2029890650511858e-07,5.408459673305773e-05
4.084070449666731,-5.5328826460429745e-05,-1.2422878660245812e-07,5.520459767382729e-05
4.118977034706618,-5.581564655592835e-05,-1.2797438665513332e-07,5.5687672169273214e-05
4.153883619746504,-5.5629685111367376e-05,-1.3153163125209138e-07,5.5498153480115284e-05
4.1887902047863905,-5.4733808035001125e-05,-1.3489648439481892e-07,5.459891155060631e-05
4.223696789826278,-5.3089058627258436e-05,-1.3806496313055815e-07,5.295099366412788e-05
4.258603374866164,-5.065458886628091e-05,-1.4103314667663024e-07,5.051355571960428e-05
4.293509959906051,-4.738821380778768e-05,-1.437971813157579e-07,4.724441662647192e-05
4.328416544945937,-4.3248316292948914e-05,-1.4635328113310705e-07,4.3101963011815805e-05
4.363323129985824,-3.813778281121837e-05,-1.4869772446427893e-07,3.7989085086754094e-05
4.39822971502571,-3.1524843855015695e-05,-1.5082684570576654e-07,3.137401700930993e-05
4.4331363000655974,-2.289975954129303e-05,-1.527370219096609e-07,2.274702251938337e-05
4.468042885105484,-1.1572061150456227e-05,-1.5442465329266494e-07,1.1417636497163562e-05
4.50294947014537,3.5483270290110657e-06,-1.5588613643372572e-07,-3.7751797060250126e-06
4.537856055185257,2.4285587642346153e-05,-1.5711782844531998e-07,-2.4928417223638396e-05
4.572762640225143,5.393682565844578e-05,-1.5811599975431072e-07,-5.5173678171369005e-05
4.60766922526503,9.912909934429965e-05,-1.5887677220485343e-07,-0.0001012705581033905
4.642575810304916,0.00017543517072269034,-1.5939603788066337e-07,-0.0001791032701750248
4.6774823953448035,0.00033014196561169455,-1.5966935211552116e-07,-0.00033690447427604396
4.71238898038469,0.0006821923634899569,-1.5969179128866346e-07,-0.0006959959025510447
4.747295565424577,0.0007343401506502466,-1.594577616016139e-07,-0.0007491864114248532
4.782202150464463,0.0007755001411795302,-1.589607381421992e-07,-0.0007911691047412631
4.817108735504349,0.0008129510755632097,-1.5819290247126905e-07,-0.000829368289976945
4.852015320544236,0.0008485068024257336,-1.5714462859099945e-07,-0.0008656340831028392
4.886921905584122,0.0008829419998124463,-1.5580373566164232e-07,-0.0009007566435443569
4.9218284906240095,0.0009166612526227404,-1.541543697297607e-07,-0.0009351486320449249
4.956735075663896,0.0009498991228330657,-1.5217527234881476e-07,-0.0009690492805620759
4.991641660703783,0.0009827995550160972,-1.4983698981846534e-07,-0.0010026053831062377
5.026548245743669,0.0010154531574712547,-1.4709715388418176e-07,-0.001035909317774564
5.061454830783556,0.001047916816404999,-1.43892028676695e-07,-0.0010690190447617755
5.096361415823442,0.0010802249104297306,-1.4012028292023237e-07,-0.0011019695289212453
5.1312680008633285,0.0011123961459762063,-1.3560913218927852e-07,-0.0011347796780279197
5.1661745859032155,0.0011444379418230652,-1.3003648981275126e-07,-0.0011674567371493393
5.201081170943102,0.0011763493621560971,-1.227327736599643e-07,-0.001199999082172879
5.235987755982989,0.0012081231494003445,-1.1214151317395573e-07,-0.0012323977539015255
5.270894341022875,0.0012397471767908986,-9.444078316776942e-08,-0.0012646365611098842
5.305800926062762,0.0012712055145052861,-6.032477383980056e-08,-0.0012966899495692316
5.340707511102648,0.0013024792311050026,2.0109576110267808e-08,-0.0013285087061509924
5.375614096142535,0.0013335470091855005,3.8550712686210793e-07,-0.0013598324422423485
5.410520681182422,0.0013643856277730528,1.7735225605265683e-06,-0.0013898998177679872
5.445427266222308,0.0013949703472969342,4.054081626265435e-06,-0.0014188156726166073
5.480333851262195,0.00142527522208999,7.075627952699427e-06,-0.0014467050985790904
5.515240436302081,0.0014552733581250192,1.0784566337370536e-05,-0.001473594258950149
5.550147021341968,0.001484937128764805,1.5137551726412689e-05,-0.0014994983196136883
5.585053606381854,0.0015142383578859344,2.009892478492821e-05,-0.0015244242002587249
5.619960191421741,0.0015431484773263475,2.5643582571122736e-05,-0.0015483678643017518
5.654866776461628,0.0015716386638801147,3.1756908086889645e-05,-0.0015713145290708274
5.689773361501515,0.0015996799598088066,3.843340050458333e-05,-0.0015932401585003993
5.724679946541401,0.0016272433799156528,4.567539885987482e-05,-0.001614112848654091
5.759586531581287,0.0016543000075410624,5.349239508951724e-05,-0.0016338936126023664
5.794493116621174,0.0016808210813201098,6.19010364404968e-05,-0.0016525364665060153
5.82939970166106,0.0017067780741483944,7.092585186739068e-05,-0.0016699877837639714
5.8643062867009474,0.0017321427654997414,8.060082956200849e-05,-0.0016861847912477278
5.899212871740834,0.0017568873080042733,9.09721698644108e-05,-0.001701052884299948
5.934119456780721,0.0017809842890116304,0.00010210288003245756,-0.0017145010947594056
5.969026041820607,0.0018044067877191138,0.00011408051984321853,-0.0017264144036302775
6.003932626860494,0.0018271284283292893,0.0001270307361856868,-0.0017366402607101883
6.03883921190038,0.0018491234296091202,0.00014114219376451834,-0.0017449637044367845
6.073745796940266,0.0018703666511480038,0.00015671557042838775,-0.0017510584137425762
6.1086523819801535,0.0018908336365511334,0.00017426703872246672,-0.0017543832705596892
6.14355896702004,0.0019105006537544237,0.00019476366424046757,-0.0017539470025890445
6.178465552059927,0.0019293447326054803,0.0002202063625344104,-0.0017477252647231797
6.213372137099813,0.0019473436998198547,0.000255452290517366,-0.0017308382832988858
6.2482787221397,0.0019644762113917085,0.000319322469376703,-0.0016844432662428395
